3996.25127,0.01856
3994.32258,0.01867
3992.39389,0.01880
3990.46519,0.01886
3988.53650,0.01879
3986.60781,0.01873
3984.67912,0.01879
3982.75042,0.01885
3980.82173,0.01885
3978.89304,0.01885
3976.96434,0.01888
3975.03565,0.01894
3973.10696,0.01899
3971.17827,0.01897
3969.24957,0.01889
3967.32088,0.01888
3965.39219,0.01895
3963.46350,0.01912
3961.53480,0.01930
3959.60611,0.01934
3957.67742,0.01924
3955.74872,0.01918
3953.82003,0.01924
3951.89134,0.01939
3949.96265,0.01953
3948.03395,0.01946
3946.10526,0.01926
3944.17657,0.01924
3942.24788,0.01933
3940.31918,0.01924
3938.39049,0.01908
3936.46180,0.01904
3934.53310,0.01920
3932.60441,0.01951
3930.67572,0.01970
3928.74703,0.01958
3926.81833,0.01955
3924.88964,0.01978
3922.96095,0.01987
3921.03226,0.01977
3919.10356,0.01981
3917.17487,0.01989
3915.24618,0.01966
3913.31749,0.01924
3911.38879,0.01893
3909.46010,0.01881
3907.53141,0.01904
3905.60271,0.01987
3903.67402,0.02090
3901.74533,0.02124
3899.81664,0.02093
3897.88794,0.02036
3895.95925,0.01980
3894.03056,0.01967
3892.10187,0.02007
3890.17317,0.02012
3888.24448,0.01979
3886.31579,0.01993
3884.38709,0.02028
3882.45840,0.02031
3880.52971,0.02031
3878.60102,0.01999
3876.67232,0.01954
3874.74363,0.01963
3872.81494,0.02019
3870.88625,0.02079
3868.95755,0.02096
3867.02886,0.02069
3865.10017,0.02075
3863.17148,0.02087
3861.24278,0.02049
3859.31409,0.02011
3857.38540,0.02009
3855.45670,0.02066
3853.52801,0.02216
3851.59932,0.02234
3849.67063,0.02111
3847.74193,0.02011
3845.81324,0.01985
3843.88455,0.02028
3841.95586,0.02088
3840.02716,0.02142
3838.09847,0.02183
3836.16978,0.02166
3834.24108,0.02118
3832.31239,0.02081
3830.38370,0.02049
3828.45501,0.02030
3826.52631,0.02035
3824.59762,0.02048
3822.66893,0.02101
3820.74024,0.02197
3818.81154,0.02201
3816.88285,0.02163
3814.95416,0.02128
3813.02546,0.02062
3811.09677,0.02005
3809.16808,0.02004
3807.23939,0.02068
3805.31069,0.02119
3803.38200,0.02154
3801.45331,0.02209
3799.52462,0.02190
3797.59592,0.02123
3795.66723,0.02073
3793.73854,0.02030
3791.80985,0.02008
3789.88115,0.02010
3787.95246,0.02022
3786.02377,0.02044
3784.09507,0.02057
3782.16638,0.02055
3780.23769,0.02074
3778.30900,0.02086
3776.38030,0.02065
3774.45161,0.02056
3772.52292,0.02090
3770.59423,0.02156
3768.66553,0.02195
3766.73684,0.02192
3764.80815,0.02175
3762.87945,0.02148
3760.95076,0.02150
3759.02207,0.02196
3757.09338,0.02219
3755.16468,0.02229
3753.23599,0.02314
3751.30730,0.02502
3749.37861,0.02597
3747.44991,0.02548
3745.52122,0.02526
3743.59253,0.02550
3741.66384,0.02537
3739.73514,0.02535
3737.80645,0.02644
3735.87776,0.02874
3733.94906,0.02993
3732.02037,0.02944
3730.09168,0.02902
3728.16299,0.02908
3726.23429,0.02938
3724.30560,0.02941
3722.37691,0.02897
3720.44822,0.02810
3718.51952,0.02701
3716.59083,0.02625
3714.66214,0.02648
3712.73344,0.02820
3710.80475,0.03036
3708.87606,0.03088
3706.94737,0.03067
3705.01867,0.03067
3703.08998,0.03110
3701.16129,0.03178
3699.23260,0.03218
3697.30390,0.03245
3695.37521,0.03296
3693.44652,0.03384
3691.51782,0.03521
3689.58913,0.03662
3687.66044,0.03719
3685.73175,0.03734
3683.80305,0.03768
3681.87436,0.03855
3679.94567,0.04004
3678.01698,0.04207
3676.08828,0.04466
3674.15959,0.04631
3672.23090,0.04706
3670.30221,0.04879
3668.37351,0.05052
3666.44482,0.05119
3664.51613,0.05219
3662.58743,0.05393
3660.65874,0.05599
3658.73005,0.05818
3656.80136,0.06077
3654.87266,0.06307
3652.94397,0.06485
3651.01528,0.06802
3649.08659,0.07339
3647.15789,0.07643
3645.22920,0.07702
3643.30051,0.07782
3641.37181,0.07962
3639.44312,0.08248
3637.51443,0.08674
3635.58574,0.09365
3633.65704,0.10350
3631.72835,0.11370
3629.79966,0.12322
3627.87097,0.12883
3625.94227,0.12760
3624.01358,0.12437
3622.08489,0.12147
3620.15620,0.11945
3618.22750,0.11823
3616.29881,0.11742
3614.37012,0.11709
3612.44142,0.11732
3610.51273,0.11815
3608.58404,0.11954
3606.65535,0.12073
3604.72665,0.12160
3602.79796,0.12311
3600.86927,0.12522
3598.94058,0.12703
3597.01188,0.12860
3595.08319,0.13038
3593.15450,0.13186
3591.22580,0.13287
3589.29711,0.13439
3587.36842,0.13656
3585.43973,0.13811
3583.51103,0.13924
3581.58234,0.14071
3579.65365,0.14254
3577.72496,0.14442
3575.79626,0.14637
3573.86757,0.14846
3571.93888,0.15053
3570.01018,0.15276
3568.08149,0.15577
3566.15280,0.15877
3564.22411,0.16022
3562.29541,0.16130
3560.36672,0.16299
3558.43803,0.16504
3556.50934,0.16706
3554.58064,0.16919
3552.65195,0.17159
3550.72326,0.17398
3548.79457,0.17622
3546.86587,0.17850
3544.93718,0.18085
3543.00849,0.18322
3541.07979,0.18564
3539.15110,0.18824
3537.22241,0.19097
3535.29372,0.19374
3533.36502,0.19636
3531.43633,0.19892
3529.50764,0.20158
3527.57895,0.20412
3525.65025,0.20635
3523.72156,0.20846
3521.79287,0.21059
3519.86417,0.21265
3517.93548,0.21474
3516.00679,0.21699
3514.07810,0.21947
3512.14940,0.22228
3510.22071,0.22515
3508.29202,0.22762
3506.36333,0.22977
3504.43463,0.23206
3502.50594,0.23445
3500.57725,0.23659
3498.64856,0.23874
3496.71986,0.24127
3494.79117,0.24407
3492.86248,0.24680
3490.93378,0.24947
3489.00509,0.25205
3487.07640,0.25463
3485.14771,0.25746
3483.21901,0.26043
3481.29032,0.26310
3479.36163,0.26542
3477.43294,0.26798
3475.50424,0.27092
3473.57555,0.27382
3471.64686,0.27632
3469.71816,0.27857
3467.78947,0.28113
3465.86078,0.28419
3463.93209,0.28738
3462.00339,0.29021
3460.07470,0.29285
3458.14601,0.29573
3456.21732,0.29862
3454.28862,0.30127
3452.35993,0.30388
3450.43124,0.30673
3448.50254,0.30970
3446.57385,0.31252
3444.64516,0.31514
3442.71647,0.31765
3440.78777,0.31997
3438.85908,0.32205
3436.93039,0.32426
3435.00170,0.32692
3433.07300,0.32989
3431.14431,0.33277
3429.21562,0.33560
3427.28693,0.33874
3425.35823,0.34188
3423.42954,0.34462
3421.50085,0.34709
3419.57215,0.34966
3417.64346,0.35220
3415.71477,0.35439
3413.78608,0.35640
3411.85738,0.35874
3409.92869,0.36150
3408.00000,0.36423
3406.07131,0.36660
3404.14261,0.36863
3402.21392,0.37045
3400.28523,0.37237
3398.35653,0.37467
3396.42784,0.37708
3394.49915,0.37904
3392.57046,0.38088
3390.64176,0.38327
3388.71307,0.38590
3386.78438,0.38812
3384.85569,0.38980
3382.92699,0.39120
3380.99830,0.39260
3379.06961,0.39417
3377.14092,0.39565
3375.21222,0.39681
3373.28353,0.39781
3371.35484,0.39870
3369.42614,0.39954
3367.49745,0.40064
3365.56876,0.40222
3363.64007,0.40393
3361.71137,0.40527
3359.78268,0.40632
3357.85399,0.40741
3355.92530,0.40842
3353.99660,0.40902
3352.06791,0.40915
3350.13922,0.40944
3348.21052,0.41026
3346.28183,0.41103
3344.35314,0.41134
3342.42445,0.41150
3340.49575,0.41166
3338.56706,0.41200
3336.63837,0.41277
3334.70968,0.41370
3332.78098,0.41433
3330.85229,0.41465
3328.92360,0.41466
3326.99490,0.41437
3325.06621,0.41427
3323.13752,0.41459
3321.20883,0.41510
3319.28013,0.41545
3317.35144,0.41560
3315.42275,0.41568
3313.49406,0.41565
3311.56536,0.41540
3309.63667,0.41503
3307.70798,0.41492
3305.77929,0.41525
3303.85059,0.41580
3301.92190,0.41636
3299.99321,0.41667
3298.06451,0.41655
3296.13582,0.41629
3294.20713,0.41618
3292.27844,0.41629
3290.34974,0.41666
3288.42105,0.41714
3286.49236,0.41736
3284.56367,0.41730
3282.63497,0.41745
3280.70628,0.41800
3278.77759,0.41845
3276.84889,0.41841
3274.92020,0.41814
3272.99151,0.41795
3271.06282,0.41780
3269.13412,0.41795
3267.20543,0.41851
3265.27674,0.41904
3263.34805,0.41925
3261.41935,0.41916
3259.49066,0.41887
3257.56197,0.41840
3255.63328,0.41796
3253.70458,0.41790
3251.77589,0.41805
3249.84720,0.41774
3247.91850,0.41697
3245.98981,0.41646
3244.06112,0.41647
3242.13243,0.41652
3240.20373,0.41623
3238.27504,0.41555
3236.34635,0.41449
3234.41766,0.41326
3232.48896,0.41241
3230.56027,0.41204
3228.63158,0.41166
3226.70288,0.41096
3224.77419,0.41007
3222.84550,0.40892
3220.91681,0.40739
3218.98811,0.40580
3217.05942,0.40444
3215.13073,0.40312
3213.20204,0.40170
3211.27334,0.40017
3209.34465,0.39835
3207.41596,0.39639
3205.48726,0.39446
3203.55857,0.39256
3201.62988,0.39068
3199.70119,0.38866
3197.77249,0.38645
3195.84380,0.38418
3193.91511,0.38189
3191.98642,0.37943
3190.05772,0.37684
3188.12903,0.37435
3186.20034,0.37185
3184.27165,0.36915
3182.34295,0.36636
3180.41426,0.36356
3178.48557,0.36071
3176.55687,0.35787
3174.62818,0.35505
3172.69949,0.35215
3170.77080,0.34909
3168.84210,0.34592
3166.91341,0.34269
3164.98472,0.33948
3163.05603,0.33638
3161.12733,0.33328
3159.19864,0.32995
3157.26995,0.32630
3155.34125,0.32242
3153.41256,0.31863
3151.48387,0.31542
3149.55518,0.31265
3147.62648,0.30966
3145.69779,0.30639
3143.76910,0.30308
3141.84041,0.29951
3139.91171,0.29573
3137.98302,0.29225
3136.05433,0.28910
3134.12564,0.28584
3132.19694,0.28219
3130.26825,0.27843
3128.33956,0.27500
3126.41086,0.27187
3124.48217,0.26846
3122.55348,0.26467
3120.62479,0.26095
3118.69609,0.25744
3116.76740,0.25408
3114.83871,0.25094
3112.91002,0.24790
3110.98132,0.24468
3109.05263,0.24135
3107.12394,0.23816
3105.19524,0.23510
3103.26655,0.23193
3101.33786,0.22859
3099.40917,0.22538
3097.48047,0.22240
3095.55178,0.21936
3093.62309,0.21611
3091.69440,0.21285
3089.76570,0.20970
3087.83701,0.20658
3085.90832,0.20342
3083.97962,0.20039
3082.05093,0.19748
3080.12224,0.19457
3078.19355,0.19174
3076.26485,0.18909
3074.33616,0.18650
3072.40747,0.18381
3070.47878,0.18102
3068.55008,0.17829
3066.62139,0.17570
3064.69270,0.17314
3062.76401,0.17055
3060.83531,0.16794
3058.90662,0.16533
3056.97793,0.16274
3055.04923,0.16022
3053.12054,0.15778
3051.19185,0.15539
3049.26316,0.15303
3047.33446,0.15066
3045.40577,0.14828
3043.47708,0.14600
3041.54839,0.14380
3039.61969,0.14163
3037.69100,0.13948
3035.76231,0.13735
3033.83361,0.13527
3031.90492,0.13327
3029.97623,0.13127
3028.04754,0.12921
3026.11884,0.12710
3024.19015,0.12502
3022.26146,0.12300
3020.33277,0.12110
3018.40407,0.11930
3016.47538,0.11754
3014.54669,0.11584
3012.61800,0.11419
3010.68930,0.11250
3008.76061,0.11074
3006.83192,0.10903
3004.90322,0.10741
3002.97453,0.10575
3001.04584,0.10404
2999.11715,0.10244
2997.18845,0.10097
2995.25976,0.09943
2993.33107,0.09786
2991.40238,0.09643
2989.47368,0.09507
2987.54499,0.09365
2985.61630,0.09219
2983.68760,0.09080
2981.75891,0.08951
2979.83022,0.08825
2977.90153,0.08693
2975.97283,0.08553
2974.04414,0.08414
2972.11545,0.08287
2970.18676,0.08169
2968.25806,0.08051
2966.32937,0.07937
2964.40068,0.07824
2962.47198,0.07702
2960.54329,0.07581
2958.61460,0.07479
2956.68591,0.07389
2954.75721,0.07300
2952.82852,0.07202
2950.89983,0.07095
2948.97114,0.06996
2947.04244,0.06911
2945.11375,0.06829
2943.18506,0.06737
2941.25637,0.06635
2939.32767,0.06528
2937.39898,0.06431
2935.47029,0.06347
2933.54159,0.06267
2931.61290,0.06191
2929.68421,0.06120
2927.75552,0.06044
2925.82682,0.05966
2923.89813,0.05893
2921.96944,0.05823
2920.04075,0.05753
2918.11205,0.05684
2916.18336,0.05621
2914.25467,0.05560
2912.32597,0.05493
2910.39728,0.05422
2908.46859,0.05352
2906.53990,0.05291
2904.61120,0.05241
2902.68251,0.05189
2900.75382,0.05136
2898.82513,0.05089
2896.89643,0.05039
2894.96774,0.04979
2893.03905,0.04917
2891.11036,0.04864
2889.18166,0.04815
2887.25297,0.04764
2885.32428,0.04715
2883.39558,0.04664
2881.46689,0.04610
2879.53820,0.04558
2877.60951,0.04515
2875.68081,0.04479
2873.75212,0.04444
2871.82343,0.04401
2869.89474,0.04347
2867.96604,0.04294
2866.03735,0.04252
2864.10866,0.04214
2862.17996,0.04180
2860.25127,0.04146
2858.32258,0.04102
2856.39389,0.04053
2854.46519,0.04018
2852.53650,0.03995
2850.60781,0.03974
2848.67912,0.03952
2846.75042,0.03919
2844.82173,0.03881
2842.89304,0.03850
2840.96434,0.03827
2839.03565,0.03804
2837.10696,0.03775
2835.17827,0.03742
2833.24957,0.03706
2831.32088,0.03668
2829.39219,0.03640
2827.46350,0.03620
2825.53480,0.03599
2823.60611,0.03570
2821.67742,0.03538
2819.74873,0.03508
2817.82003,0.03480
2815.89134,0.03457
2813.96265,0.03439
2812.03395,0.03420
2810.10526,0.03403
2808.17657,0.03386
2806.24788,0.03362
2804.31918,0.03334
2802.39049,0.03317
2800.46180,0.03307
2798.53311,0.03287
2796.60441,0.03260
2794.67572,0.03241
2792.74703,0.03231
2790.81833,0.03221
2788.88964,0.03200
2786.96095,0.03169
2785.03226,0.03139
2783.10356,0.03123
2781.17487,0.03109
2779.24618,0.03090
2777.31749,0.03078
2775.38879,0.03071
2773.46010,0.03056
2771.53141,0.03032
2769.60272,0.03012
2767.67402,0.03001
2765.74533,0.02991
2763.81664,0.02980
2761.88794,0.02971
2759.95925,0.02965
2758.03056,0.02951
2756.10187,0.02931
2754.17317,0.02914
2752.24448,0.02906
2750.31579,0.02900
2748.38710,0.02889
2746.45840,0.02874
2744.52971,0.02859
2742.60102,0.02844
2740.67232,0.02830
2738.74363,0.02823
2736.81494,0.02820
2734.88625,0.02811
2732.95755,0.02796
2731.02886,0.02783
2729.10017,0.02779
2727.17148,0.02781
2725.24278,0.02776
2723.31409,0.02759
2721.38540,0.02741
2719.45670,0.02728
2717.52801,0.02719
2715.59932,0.02712
2713.67063,0.02700
2711.74193,0.02688
2709.81324,0.02679
2707.88455,0.02672
2705.95586,0.02671
2704.02716,0.02671
2702.09847,0.02664
2700.16978,0.02654
2698.24109,0.02645
2696.31239,0.02639
2694.38370,0.02639
2692.45501,0.02644
2690.52631,0.02642
2688.59762,0.02634
2686.66893,0.02626
2684.74024,0.02623
2682.81154,0.02623
2680.88285,0.02620
2678.95416,0.02614
2677.02547,0.02604
2675.09677,0.02598
2673.16808,0.02597
2671.23939,0.02593
2669.31069,0.02590
2667.38200,0.02592
2665.45331,0.02594
2663.52462,0.02590
2661.59592,0.02587
2659.66723,0.02591
2657.73854,0.02595
2655.80985,0.02590
2653.88115,0.02581
2651.95246,0.02578
2650.02377,0.02579
2648.09508,0.02576
2646.16638,0.02573
2644.23769,0.02577
2642.30900,0.02580
2640.38030,0.02576
2638.45161,0.02567
2636.52292,0.02558
2634.59423,0.02549
2632.66553,0.02536
2630.73684,0.02526
2628.80815,0.02525
2626.87946,0.02525
2624.95076,0.02523
2623.02207,0.02519
2621.09338,0.02514
2619.16468,0.02506
2617.23599,0.02504
2615.30730,0.02511
2613.37861,0.02514
2611.44991,0.02509
2609.52122,0.02496
2607.59253,0.02476
2605.66384,0.02466
2603.73514,0.02465
2601.80645,0.02463
2599.87776,0.02463
2597.94906,0.02469
2596.02037,0.02476
2594.09168,0.02474
2592.16299,0.02464
2590.23429,0.02464
2588.30560,0.02471
2586.37691,0.02471
2584.44822,0.02470
2582.51952,0.02475
2580.59083,0.02477
2578.66214,0.02479
2576.73345,0.02482
2574.80475,0.02479
2572.87606,0.02475
2570.94737,0.02471
2569.01867,0.02463
2567.08998,0.02459
2565.16129,0.02467
2563.23260,0.02469
2561.30390,0.02454
2559.37521,0.02442
2557.44652,0.02443
2555.51783,0.02456
2553.58913,0.02471
2551.66044,0.02484
2549.73175,0.02493
2547.80305,0.02491
2545.87436,0.02482
2543.94567,0.02481
2542.01698,0.02485
2540.08828,0.02480
2538.15959,0.02469
2536.23090,0.02478
2534.30221,0.02504
2532.37351,0.02518
2530.44482,0.02512
2528.51613,0.02511
2526.58744,0.02518
2524.65874,0.02512
2522.73005,0.02498
2520.80136,0.02496
2518.87266,0.02510
2516.94397,0.02528
2515.01528,0.02539
2513.08659,0.02535
2511.15789,0.02523
2509.22920,0.02513
2507.30051,0.02517
2505.37182,0.02539
2503.44312,0.02556
2501.51443,0.02553
2499.58574,0.02550
2497.65704,0.02560
2495.72835,0.02574
2493.79966,0.02576
2491.87097,0.02563
2489.94227,0.02556
2488.01358,0.02569
2486.08489,0.02584
2484.15620,0.02588
2482.22750,0.02584
2480.29881,0.02583
2478.37012,0.02587
2476.44142,0.02594
2474.51273,0.02610
2472.58404,0.02633
2470.65535,0.02652
2468.72665,0.02661
2466.79796,0.02662
2464.86927,0.02656
2462.94058,0.02647
2461.01188,0.02654
2459.08319,0.02686
2457.15450,0.02722
2455.22581,0.02732
2453.29711,0.02715
2451.36842,0.02696
2449.43973,0.02691
2447.51103,0.02698
2445.58234,0.02712
2443.65365,0.02738
2441.72496,0.02761
2439.79626,0.02766
2437.86757,0.02755
2435.93888,0.02734
2434.01019,0.02720
2432.08149,0.02733
2430.15280,0.02752
2428.22411,0.02752
2426.29541,0.02743
2424.36672,0.02741
2422.43803,0.02748
2420.50934,0.02763
2418.58064,0.02773
2416.65195,0.02777
2414.72326,0.02791
2412.79457,0.02804
2410.86587,0.02807
2408.93718,0.02807
2407.00849,0.02808
2405.07980,0.02812
2403.15110,0.02824
2401.22241,0.02834
2399.29372,0.02842
2397.36502,0.02853
2395.43633,0.02863
2393.50764,0.02873
2391.57895,0.02893
2389.65025,0.02934
2387.72156,0.03023
2385.79287,0.03210
2383.86418,0.03552
2381.93548,0.04074
2380.00679,0.04753
2378.07810,0.05529
2376.14940,0.06359
2374.22071,0.07233
2372.29202,0.08148
2370.36333,0.09088
2368.43463,0.10011
2366.50594,0.10850
2364.57725,0.11534
2362.64856,0.12015
2360.71986,0.12242
2358.79117,0.12145
2356.86248,0.11656
2354.93378,0.10797
2353.00509,0.09666
2351.07640,0.08542
2349.14771,0.07965
2347.21901,0.08256
2345.29032,0.09120
2343.36163,0.09762
2341.43294,0.09916
2339.50424,0.09863
2337.57555,0.09743
2335.64686,0.09586
2333.71817,0.09468
2331.78947,0.09379
2329.86078,0.09179
2327.93209,0.08881
2326.00339,0.08638
2324.07470,0.08450
2322.14601,0.08164
2320.21732,0.07689
2318.28862,0.07121
2316.35993,0.06642
2314.43124,0.06341
2312.50255,0.06118
2310.57385,0.05863
2308.64516,0.05568
2306.71647,0.05248
2304.78777,0.04939
2302.85908,0.04703
2300.93039,0.04543
2299.00170,0.04422
2297.07300,0.04307
2295.14431,0.04179
2293.21562,0.04054
2291.28693,0.03960
2289.35823,0.03876
2287.42954,0.03775
2285.50085,0.03678
2283.57215,0.03626
2281.64346,0.03616
2279.71477,0.03621
2277.78608,0.03630
2275.85738,0.03647
2273.92869,0.03673
2272.00000,0.03689
2270.07131,0.03677
2268.14261,0.03663
2266.21392,0.03673
2264.28523,0.03667
2262.35654,0.03634
2260.42784,0.03611
2258.49915,0.03617
2256.57046,0.03631
2254.64176,0.03603
2252.71307,0.03533
2250.78438,0.03468
2248.85569,0.03439
2246.92699,0.03460
2244.99830,0.03497
2243.06961,0.03505
2241.14092,0.03487
2239.21222,0.03470
2237.28353,0.03446
2235.35484,0.03424
2233.42614,0.03449
2231.49745,0.03509
2229.56876,0.03539
2227.64007,0.03513
2225.71137,0.03451
2223.78268,0.03394
2221.85399,0.03393
2219.92530,0.03467
2217.99660,0.03569
2216.06791,0.03638
2214.13922,0.03634
2212.21053,0.03576
2210.28183,0.03541
2208.35314,0.03555
2206.42445,0.03566
2204.49575,0.03569
2202.56706,0.03593
2200.63837,0.03616
2198.70968,0.03614
2196.78098,0.03629
2194.85229,0.03645
2192.92360,0.03579
2190.99491,0.03475
2189.06621,0.03453
2187.13752,0.03492
2185.20883,0.03504
2183.28013,0.03493
2181.35144,0.03504
2179.42275,0.03550
2177.49406,0.03596
2175.56536,0.03589
2173.63667,0.03590
2171.70798,0.03662
2169.77929,0.03707
2167.85059,0.03655
2165.92190,0.03614
2163.99321,0.03650
2162.06451,0.03619
2160.13582,0.03370
2158.20713,0.03173
2156.27844,0.03338
2154.34974,0.03602
2152.42105,0.03745
2150.49236,0.03808
2148.56367,0.03807
2146.63497,0.03747
2144.70628,0.03718
2142.77759,0.03760
2140.84890,0.03798
2138.92020,0.03818
2136.99151,0.03862
2135.06282,0.03904
2133.13412,0.03936
2131.20543,0.03971
2129.27674,0.04003
2127.34805,0.04065
2125.41935,0.04163
2123.49066,0.04221
2121.56197,0.04215
2119.63328,0.04199
2117.70458,0.04195
2115.77589,0.04201
2113.84720,0.04220
2111.91850,0.04243
2109.98981,0.04269
2108.06112,0.04282
2106.13243,0.04250
2104.20373,0.04201
2102.27504,0.04184
2100.34635,0.04196
2098.41766,0.04218
2096.48896,0.04226
2094.56027,0.04219
2092.63158,0.04215
2090.70289,0.04200
2088.77419,0.04162
2086.84550,0.04161
2084.91681,0.04210
2082.98811,0.04240
2081.05942,0.04254
2079.13073,0.04284
2077.20204,0.04267
2075.27334,0.04191
2073.34465,0.04126
2071.41596,0.04088
2069.48727,0.04061
2067.55857,0.04073
2065.62988,0.04105
2063.70119,0.04101
2061.77249,0.04050
2059.84380,0.03985
2057.91511,0.03945
2055.98642,0.03950
2054.05772,0.03981
2052.12903,0.04012
2050.20034,0.04008
2048.27165,0.03932
2046.34295,0.03849
2044.41426,0.03848
2042.48557,0.03855
2040.55687,0.03757
2038.62818,0.03641
2036.69949,0.03631
2034.77080,0.03625
2032.84210,0.03513
2030.91341,0.03392
2028.98472,0.03378
2027.05603,0.03452
2025.12733,0.03479
2023.19864,0.03419
2021.26995,0.03383
2019.34126,0.03373
2017.41256,0.03292
2015.48387,0.03207
2013.55518,0.03255
2011.62648,0.03388
2009.69779,0.03416
2007.76910,0.03304
2005.84041,0.03235
2003.91171,0.03261
2001.98302,0.03353
2000.05433,0.03489
1998.12564,0.03528
1996.19694,0.03461
1994.26825,0.03413
1992.33956,0.03385
1990.41086,0.03355
1988.48217,0.03339
1986.55348,0.03332
1984.62479,0.03329
1982.69609,0.03357
1980.76740,0.03407
1978.83871,0.03410
1976.91002,0.03282
1974.98132,0.03060
1973.05263,0.02950
1971.12394,0.03000
1969.19525,0.03041
1967.26655,0.02985
1965.33786,0.02931
1963.40917,0.02920
1961.48047,0.02897
1959.55178,0.02890
1957.62309,0.02924
1955.69440,0.02982
1953.76570,0.03060
1951.83701,0.03099
1949.90832,0.03093
1947.97963,0.03114
1946.05093,0.03144
1944.12224,0.03145
1942.19355,0.03167
1940.26485,0.03198
1938.33616,0.03196
1936.40747,0.03194
1934.47878,0.03204
1932.55008,0.03199
1930.62139,0.03181
1928.69270,0.03186
1926.76401,0.03219
1924.83531,0.03259
1922.90662,0.03276
1920.97793,0.03251
1919.04923,0.03226
1917.12054,0.03240
1915.19185,0.03256
1913.26316,0.03246
1911.33446,0.03224
1909.40577,0.03197
1907.47708,0.03174
1905.54839,0.03157
1903.61969,0.03142
1901.69100,0.03146
1899.76231,0.03170
1897.83362,0.03194
1895.90492,0.03219
1893.97623,0.03238
1892.04754,0.03237
1890.11884,0.03234
1888.19015,0.03236
1886.26146,0.03230
1884.33277,0.03233
1882.40407,0.03248
1880.47538,0.03253
1878.54669,0.03240
1876.61800,0.03226
1874.68930,0.03216
1872.76061,0.03227
1870.83192,0.03277
1868.90322,0.03338
1866.97453,0.03348
1865.04584,0.03327
1863.11715,0.03315
1861.18845,0.03308
1859.25976,0.03287
1857.33107,0.03261
1855.40238,0.03256
1853.47368,0.03275
1851.54499,0.03294
1849.61630,0.03317
1847.68761,0.03369
1845.75891,0.03440
1843.83022,0.03464
1841.90153,0.03424
1839.97283,0.03392
1838.04414,0.03389
1836.11545,0.03386
1834.18676,0.03379
1832.25806,0.03410
1830.32937,0.03480
1828.40068,0.03512
1826.47199,0.03504
1824.54329,0.03493
1822.61460,0.03463
1820.68591,0.03437
1818.75721,0.03443
1816.82852,0.03463
1814.89983,0.03485
1812.97114,0.03520
1811.04244,0.03562
1809.11375,0.03585
1807.18506,0.03590
1805.25637,0.03601
1803.32767,0.03636
1801.39898,0.03690
1799.47029,0.03729
1797.54159,0.03749
1795.61290,0.03778
1793.68421,0.03828
1791.75552,0.03864
1789.82682,0.03842
1787.89813,0.03823
1785.96944,0.03849
1784.04075,0.03896
1782.11205,0.03940
1780.18336,0.03977
1778.25467,0.04003
1776.32598,0.04041
1774.39728,0.04127
1772.46859,0.04241
1770.53990,0.04283
1768.61120,0.04266
1766.68251,0.04252
1764.75382,0.04270
1762.82513,0.04336
1760.89643,0.04415
1758.96774,0.04462
1757.03905,0.04513
1755.11036,0.04567
1753.18166,0.04635
1751.25297,0.04769
1749.32428,0.04924
1747.39558,0.05002
1745.46689,0.05039
1743.53820,0.05086
1741.60951,0.05159
1739.68081,0.05252
1737.75212,0.05340
1735.82343,0.05466
1733.89474,0.05686
1731.96604,0.05816
1730.03735,0.05847
1728.10866,0.05902
1726.17997,0.06001
1724.25127,0.06153
1722.32258,0.06320
1720.39389,0.06492
1718.46519,0.06769
1716.53650,0.07130
1714.60781,0.07319
1712.67912,0.07421
1710.75042,0.07573
1708.82173,0.07794
1706.89304,0.08097
1704.96435,0.08418
1703.03565,0.08662
1701.10696,0.08983
1699.17827,0.09444
1697.24957,0.09807
1695.32088,0.10107
1693.39219,0.10351
1691.46350,0.10605
1689.53480,0.10960
1687.60611,0.11323
1685.67742,0.11749
1683.74873,0.12400
1681.82003,0.12841
1679.89134,0.13102
1677.96265,0.13399
1676.03395,0.13825
1674.10526,0.14339
1672.17657,0.14781
1670.24788,0.15273
1668.31918,0.15784
1666.39049,0.16125
1664.46180,0.16488
1662.53311,0.16997
1660.60441,0.17454
1658.67572,0.17797
1656.74703,0.18125
1654.81834,0.18566
1652.88964,0.19279
1650.96095,0.19669
1649.03226,0.19874
1647.10356,0.20218
1645.17487,0.20481
1643.24618,0.20577
1641.31749,0.20688
1639.38879,0.20839
1637.46010,0.20995
1635.53141,0.21025
1633.60272,0.20874
1631.67402,0.20726
1629.74533,0.20577
1627.81664,0.20365
1625.88794,0.20103
1623.95925,0.19761
1622.03056,0.19324
1620.10187,0.18958
1618.17317,0.18605
1616.24448,0.18041
1614.31579,0.17458
1612.38710,0.17007
1610.45840,0.16568
1608.52971,0.16094
1606.60102,0.15614
1604.67233,0.15161
1602.74363,0.14721
1600.81494,0.14294
1598.88625,0.13905
1596.95755,0.13549
1595.02886,0.13196
1593.10017,0.12857
1591.17148,0.12544
1589.24278,0.12245
1587.31409,0.11959
1585.38540,0.11694
1583.45671,0.11456
1581.52801,0.11254
1579.59932,0.11108
1577.67063,0.10994
1575.74193,0.10791
1573.81324,0.10569
1571.88455,0.10437
1569.95586,0.10318
1568.02716,0.10155
1566.09847,0.10007
1564.16978,0.09894
1562.24109,0.09829
1560.31239,0.09833
1558.38370,0.09794
1556.45501,0.09629
1554.52631,0.09476
1552.59762,0.09353
1550.66893,0.09260
1548.74024,0.09185
1546.81154,0.09155
1544.88285,0.09204
1542.95416,0.09309
1541.02547,0.09359
1539.09677,0.09208
1537.16808,0.09064
1535.23939,0.09021
1533.31070,0.09004
1531.38200,0.08940
1529.45331,0.08896
1527.52462,0.08913
1525.59592,0.08949
1523.66723,0.08973
1521.73854,0.08978
1519.80985,0.08946
1517.88115,0.08898
1515.95246,0.08809
1514.02377,0.08698
1512.09508,0.08635
1510.16638,0.08657
1508.23769,0.08747
1506.30900,0.08676
1504.38030,0.08466
1502.45161,0.08355
1500.52292,0.08322
1498.59423,0.08332
1496.66553,0.08319
1494.73684,0.08262
1492.80815,0.08243
1490.87946,0.08309
1488.95076,0.08394
1487.02207,0.08380
1485.09338,0.08333
1483.16469,0.08318
1481.23599,0.08321
1479.30730,0.08316
1477.37861,0.08317
1475.44991,0.08344
1473.52122,0.08347
1471.59253,0.08236
1469.66384,0.08112
1467.73514,0.08070
1465.80645,0.08094
1463.87776,0.08112
1461.94907,0.08115
1460.02037,0.08169
1458.09168,0.08278
1456.16299,0.08261
1454.23429,0.08131
1452.30560,0.08036
1450.37691,0.07985
1448.44822,0.07958
1446.51952,0.07913
1444.59083,0.07852
1442.66214,0.07811
1440.73345,0.07800
1438.80475,0.07819
1436.87606,0.07860
1434.94737,0.07858
1433.01867,0.07822
1431.08998,0.07803
1429.16129,0.07793
1427.23260,0.07774
1425.30390,0.07769
1423.37521,0.07777
1421.44652,0.07789
1419.51783,0.07818
1417.58913,0.07815
1415.66044,0.07759
1413.73175,0.07714
1411.80306,0.07692
1409.87436,0.07677
1407.94567,0.07669
1406.01698,0.07669
1404.08828,0.07651
1402.15959,0.07625
1400.23090,0.07631
1398.30221,0.07655
1396.37351,0.07649
1394.44482,0.07606
1392.51613,0.07550
1390.58744,0.07520
1388.65874,0.07530
1386.73005,0.07540
1384.80136,0.07514
1382.87266,0.07484
1380.94397,0.07476
1379.01528,0.07481
1377.08659,0.07493
1375.15789,0.07514
1373.22920,0.07514
1371.30051,0.07483
1369.37182,0.07453
1367.44312,0.07435
1365.51443,0.07438
1363.58574,0.07458
1361.65705,0.07449
1359.72835,0.07399
1357.79966,0.07357
1355.87097,0.07336
1353.94227,0.07322
1352.01358,0.07310
1350.08489,0.07297
1348.15620,0.07276
1346.22750,0.07251
1344.29881,0.07235
1342.37012,0.07245
1340.44143,0.07280
1338.51273,0.07289
1336.58404,0.07246
1334.65535,0.07198
1332.72665,0.07175
1330.79796,0.07165
1328.86927,0.07148
1326.94058,0.07133
1325.01188,0.07131
1323.08319,0.07137
1321.15450,0.07148
1319.22581,0.07161
1317.29711,0.07162
1315.36842,0.07152
1313.43973,0.07139
1311.51103,0.07125
1309.58234,0.07115
1307.65365,0.07108
1305.72496,0.07102
1303.79626,0.07101
1301.86757,0.07100
1299.93888,0.07098
1298.01019,0.07097
1296.08149,0.07091
1294.15280,0.07083
1292.22411,0.07081
1290.29542,0.07085
1288.36672,0.07085
1286.43803,0.07081
1284.50934,0.07078
1282.58064,0.07076
1280.65195,0.07075
1278.72326,0.07078
1276.79457,0.07080
1274.86587,0.07080
1272.93718,0.07087
1271.00849,0.07096
1269.07980,0.07096
1267.15110,0.07089
1265.22241,0.07081
1263.29372,0.07074
1261.36502,0.07070
1259.43633,0.07069
1257.50764,0.07067
1255.57895,0.07065
1253.65025,0.07066
1251.72156,0.07069
1249.79287,0.07073
1247.86418,0.07074
1245.93548,0.07069
1244.00679,0.07060
1242.07810,0.07058
1240.14941,0.07065
1238.22071,0.07070
1236.29202,0.07065
1234.36333,0.07061
1232.43463,0.07068
1230.50594,0.07074
1228.57725,0.07075
1226.64856,0.07073
1224.71986,0.07068
1222.79117,0.07065
1220.86248,0.07073
1218.93379,0.07081
1217.00509,0.07080
1215.07640,0.07077
1213.14771,0.07078
1211.21901,0.07076
1209.29032,0.07073
1207.36163,0.07076
1205.43294,0.07082
1203.50424,0.07087
1201.57555,0.07093
1199.64686,0.07106
1197.71817,0.07122
1195.78947,0.07138
1193.86078,0.07155
1191.93209,0.07178
1190.00339,0.07204
1188.07470,0.07235
1186.14601,0.07270
1184.21732,0.07306
1182.28862,0.07345
1180.35993,0.07389
1178.43124,0.07439
1176.50255,0.07492
1174.57385,0.07553
1172.64516,0.07630
1170.71647,0.07722
1168.78778,0.07823
1166.85908,0.07933
1164.93039,0.08058
1163.00170,0.08202
1161.07300,0.08361
1159.14431,0.08533
1157.21562,0.08731
1155.28693,0.08964
1153.35823,0.09214
1151.42954,0.09473
1149.50085,0.09751
1147.57216,0.10053
1145.64346,0.10371
1143.71477,0.10694
1141.78608,0.11024
1139.85738,0.11373
1137.92869,0.11757
1136.00000,0.12180
1134.07131,0.12632
1132.14261,0.13096
1130.21392,0.13551
1128.28523,0.13970
1126.35654,0.14327
1124.42784,0.14621
1122.49915,0.14850
1120.57046,0.14998
1118.64177,0.15058
1116.71307,0.15041
1114.78438,0.14964
1112.85569,0.14848
1110.92699,0.14711
1108.99830,0.14568
1107.06961,0.14428
1105.14092,0.14281
1103.21222,0.14129
1101.28353,0.13987
1099.35484,0.13869
1097.42615,0.13786
1095.49745,0.13749
1093.56876,0.13761
1091.64007,0.13840
1089.71137,0.14006
1087.78268,0.14255
1085.85399,0.14545
1083.92530,0.14803
1081.99660,0.14967
1080.06791,0.15023
1078.13922,0.14994
1076.21053,0.14904
1074.28183,0.14763
1072.35314,0.14569
1070.42445,0.14325
1068.49575,0.14018
1066.56706,0.13638
1064.63837,0.13197
1062.70968,0.12726
1060.78098,0.12264
1058.85229,0.11838
1056.92360,0.11458
1054.99491,0.11135
1053.06621,0.10867
1051.13752,0.10630
1049.20883,0.10402
1047.28014,0.10182
1045.35144,0.09974
1043.42275,0.09778
1041.49406,0.09589
1039.56536,0.09415
1037.63667,0.09266
1035.70798,0.09146
1033.77929,0.09042
1031.85059,0.08951
1029.92190,0.08881
1027.99321,0.08828
1026.06452,0.08779
1024.13582,0.08732
1022.20713,0.08688
1020.27844,0.08656
1018.34974,0.08647
1016.42105,0.08649
1014.49236,0.08642
1012.56367,0.08620
1010.63497,0.08606
1008.70628,0.08615
1006.77759,0.08630
1004.84890,0.08636
1002.92020,0.08638
1000.99151,0.08647
999.06282,0.08656
997.13413,0.08665
995.20543,0.08691
993.27674,0.08735
991.34805,0.08781
989.41935,0.08819
987.49066,0.08859
985.56197,0.08911
983.63328,0.08971
981.70458,0.09028
979.77589,0.09088
977.84720,0.09165
975.91851,0.09271
973.98981,0.09408
972.06112,0.09577
970.13243,0.09752
968.20373,0.09881
966.27504,0.09927
964.34635,0.09899
962.41766,0.09857
960.48896,0.09852
958.56027,0.09891
956.63158,0.09947
954.70289,0.10006
952.77419,0.10068
950.84550,0.10138
948.91681,0.10212
946.98811,0.10285
945.05942,0.10365
943.13073,0.10450
941.20204,0.10536
939.27334,0.10624
937.34465,0.10719
935.41596,0.10818
933.48727,0.10921
931.55857,0.11025
929.62988,0.11126
927.70119,0.11229
925.77250,0.11340
923.84380,0.11456
921.91511,0.11564
919.98642,0.11670
918.05772,0.11792
916.12903,0.11928
914.20034,0.12061
912.27165,0.12184
910.34295,0.12310
908.41426,0.12451
906.48557,0.12603
904.55688,0.12759
902.62818,0.12911
900.69949,0.13063
898.77080,0.13220
896.84210,0.13372
894.91341,0.13526
892.98472,0.13689
891.05603,0.13855
889.12733,0.14025
887.19864,0.14202
885.26995,0.14382
883.34126,0.14569
881.41256,0.14756
879.48387,0.14945
877.55518,0.15147
875.62649,0.15357
873.69779,0.15567
871.76910,0.15767
869.84041,0.15959
867.91171,0.16166
865.98302,0.16401
864.05433,0.16649
862.12564,0.16895
860.19694,0.17143
858.26825,0.17395
856.33956,0.17653
854.41087,0.17921
852.48217,0.18188
850.55348,0.18427
848.62479,0.18643
846.69609,0.18879
844.76740,0.19152
842.83871,0.19440
840.91002,0.19710
838.98132,0.19944
837.05263,0.20150
835.12394,0.20348
833.19525,0.20554
831.26655,0.20775
829.33786,0.20993
827.40917,0.21196
825.48047,0.21391
823.55178,0.21599
821.62309,0.21828
819.69440,0.22055
817.76570,0.22273
815.83701,0.22511
813.90832,0.22766
811.97963,0.23018
810.05093,0.23266
808.12224,0.23513
806.19355,0.23757
804.26486,0.23991
802.33616,0.24233
800.40747,0.24503
798.47878,0.24783
796.55008,0.25048
794.62139,0.25302
792.69270,0.25554
790.76401,0.25804
788.83531,0.26054
786.90662,0.26306
784.97793,0.26562
783.04924,0.26818
781.12054,0.27073
779.19185,0.27340
777.26316,0.27623
775.33446,0.27916
773.40577,0.28197
771.47708,0.28451
769.54839,0.28708
767.61969,0.28984
765.69100,0.29244
763.76231,0.29475
761.83362,0.29729
759.90492,0.30008
757.97623,0.30269
756.04754,0.30519
754.11885,0.30772
752.19015,0.31021
750.26146,0.31288
748.33277,0.31566
746.40407,0.31806
744.47538,0.32014
742.54669,0.32231
740.61800,0.32461
738.68930,0.32686
736.76061,0.32917
734.83192,0.33169
732.90323,0.33431
730.97453,0.33687
729.04584,0.33919
727.11715,0.34120
725.18845,0.34334
723.25976,0.34615
721.33107,0.34945
719.40238,0.35196
717.47368,0.35347
715.54499,0.35525
713.61630,0.35748
711.68761,0.35967
709.75891,0.36207
707.83022,0.36489
705.90153,0.36787
703.97283,0.37064
702.04414,0.37306
700.11545,0.37561
698.18676,0.37858
696.25806,0.38169
694.32937,0.38498
692.40068,0.38849
690.47199,0.39180
688.54329,0.39479
686.61460,0.39779
684.68591,0.40089
682.75722,0.40357
680.82852,0.40574
678.89983,0.40803
676.97114,0.41037
675.04244,0.41202
673.11375,0.41436
671.18506,0.42138
669.25637,0.43198
667.32767,0.43208
665.39898,0.42355
663.47029,0.42080
661.54160,0.42298
659.61290,0.42613
657.68421,0.42924
655.75552,0.43230
653.82682,0.43494
651.89813,0.43701
649.96944,0.43842
648.04075,0.43890
646.11205,0.43885
644.18336,0.43898
642.25467,0.43933
640.32598,0.43978
638.39728,0.44049
636.46859,0.44187
634.53990,0.44382
632.61121,0.44549
630.68251,0.44665
628.75382,0.44823
626.82513,0.45083
624.89643,0.45410
622.96774,0.45763
621.03905,0.46130
619.11036,0.46502
617.18166,0.46807
615.25297,0.46981
613.32428,0.47120
611.39559,0.47374
609.46689,0.47704
607.53820,0.47942
605.60951,0.48118
603.68081,0.48339
601.75212,0.48575
599.82343,0.48773
