3996.25127,0.01790
3994.32258,0.01783
3992.39389,0.01776
3990.46519,0.01771
3988.53650,0.01783
3986.60781,0.01801
3984.67912,0.01809
3982.75042,0.01811
3980.82173,0.01813
3978.89304,0.01804
3976.96434,0.01768
3975.03565,0.01733
3973.10696,0.01735
3971.17827,0.01755
3969.24957,0.01776
3967.32088,0.01802
3965.39219,0.01805
3963.46350,0.01765
3961.53480,0.01733
3959.60611,0.01738
3957.67742,0.01754
3955.74872,0.01761
3953.82003,0.01731
3951.89134,0.01640
3949.96265,0.01538
3948.03395,0.01532
3946.10526,0.01572
3944.17657,0.01552
3942.24788,0.01577
3940.31918,0.01696
3938.39049,0.01774
3936.46180,0.01743
3934.53310,0.01595
3932.60441,0.01425
3930.67572,0.01413
3928.74703,0.01505
3926.81833,0.01496
3924.88964,0.01423
3922.96095,0.01449
3921.03226,0.01479
3919.10356,0.01421
3917.17487,0.01433
3915.24618,0.01601
3913.31749,0.01757
3911.38879,0.01805
3909.46010,0.01728
3907.53141,0.01461
3905.60271,0.01020
3903.67402,0.00686
3901.74533,0.00691
3899.81664,0.00940
3897.88794,0.01279
3895.95925,0.01445
3894.03056,0.01320
3892.10187,0.01164
3890.17317,0.01270
3888.24448,0.01336
3886.31579,0.01190
3884.38709,0.01059
3882.45840,0.01017
3880.52971,0.01100
3878.60102,0.01321
3876.67232,0.01342
3874.74363,0.01097
3872.81494,0.00804
3870.88625,0.00647
3868.95755,0.00759
3867.02886,0.00867
3865.10017,0.00783
3863.17148,0.00853
3861.24278,0.01140
3859.31409,0.01233
3857.38540,0.00976
3855.45670,0.00424
3853.52801,0.00035
3851.59932,0.00537
3849.67063,0.01137
3847.74193,0.01405
3845.81324,0.01347
3843.88455,0.01052
3841.95586,0.00647
3840.02716,0.00265
3838.09847,0.00217
3836.16978,0.00559
3834.24108,0.00885
3832.31239,0.01107
3830.38370,0.01239
3828.45501,0.01224
3826.52631,0.01130
3824.59762,0.00970
3822.66893,0.00624
3820.74024,0.00389
3818.81154,0.00554
3816.88285,0.00805
3814.95416,0.01203
3813.02546,0.01572
3811.09677,0.01645
3809.16808,0.01422
3807.23939,0.01126
3805.31069,0.00964
3803.38200,0.00738
3801.45331,0.00588
3799.52462,0.00798
3797.59592,0.01060
3795.66723,0.01365
3793.73854,0.01675
3791.80985,0.01825
3789.88115,0.01827
3787.95246,0.01717
3786.02377,0.01566
3784.09507,0.01518
3782.16638,0.01508
3780.23769,0.01453
3778.30900,0.01545
3776.38030,0.01751
3774.45161,0.01810
3772.52292,0.01644
3770.59423,0.01384
3768.66553,0.01289
3766.73684,0.01353
3764.80815,0.01458
3762.87945,0.01481
3760.95076,0.01300
3759.02207,0.01095
3757.09338,0.01065
3755.16468,0.00947
3753.23599,0.00495
3751.30730,-0.00051
3749.37861,0.00017
3747.44991,0.00301
3745.52122,0.00487
3743.59253,0.00798
3741.66384,0.01040
3739.73514,0.01013
3737.80645,0.00719
3735.87776,0.00388
3733.94906,0.00599
3732.02037,0.01253
3730.09168,0.01728
3728.16299,0.01828
3726.23429,0.01692
3724.30560,0.01588
3722.37691,0.01640
3720.44822,0.01794
3718.51952,0.01947
3716.59083,0.01960
3714.66214,0.01724
3712.73344,0.01312
3710.80475,0.01295
3708.87606,0.01845
3706.94737,0.02301
3705.01867,0.02439
3703.08998,0.02381
3701.16129,0.02444
3699.23260,0.02665
3697.30390,0.02793
3695.37521,0.02765
3693.44652,0.02539
3691.51782,0.02087
3689.58913,0.01876
3687.66044,0.02404
3685.73175,0.02994
3683.80305,0.03283
3681.87436,0.03309
3679.94567,0.03106
3678.01698,0.02725
3676.08828,0.02468
3674.15959,0.02754
3672.23090,0.03013
3670.30221,0.03235
3668.37351,0.03904
3666.44482,0.04563
3664.51613,0.04933
3662.58743,0.05138
3660.65874,0.05248
3658.73005,0.05240
3656.80136,0.05226
3654.87266,0.05327
3652.94397,0.05235
3651.01528,0.04733
3649.08659,0.04499
3647.15789,0.05364
3645.22920,0.06234
3643.30051,0.06716
3641.37181,0.07022
3639.44312,0.07339
3637.51443,0.07783
3635.58574,0.08611
3633.65704,0.10043
3631.72835,0.11637
3629.79966,0.12924
3627.87097,0.13748
3625.94227,0.13895
3624.01358,0.13532
3622.08489,0.12813
3620.15620,0.11954
3618.22750,0.11421
3616.29881,0.11231
3614.37012,0.11089
3612.44142,0.11087
3610.51273,0.11198
3608.58404,0.11355
3606.65535,0.11671
3604.72665,0.11965
3602.79796,0.12053
3600.86927,0.12046
3598.94058,0.12111
3597.01188,0.12226
3595.08319,0.12401
3593.15450,0.12667
3591.22580,0.12796
3589.29711,0.12659
3587.36842,0.12641
3585.43973,0.13082
3583.51103,0.13547
3581.58234,0.13839
3579.65365,0.14046
3577.72496,0.14222
3575.79626,0.14410
3573.86757,0.14637
3571.93888,0.14787
3570.01018,0.14687
3568.08149,0.14434
3566.15280,0.14571
3564.22411,0.15105
3562.29541,0.15575
3560.36672,0.15940
3558.43803,0.16264
3556.50934,0.16494
3554.58064,0.16600
3552.65195,0.16714
3550.72326,0.16933
3548.79457,0.17105
3546.86587,0.17182
3544.93718,0.17398
3543.00849,0.17820
3541.07979,0.18230
3539.15110,0.18489
3537.22241,0.18664
3535.29372,0.18899
3533.36502,0.19160
3531.43633,0.19323
3529.50764,0.19416
3527.57895,0.19571
3525.65025,0.19811
3523.72156,0.20104
3521.79287,0.20457
3519.86417,0.20797
3517.93548,0.21082
3516.00679,0.21337
3514.07810,0.21557
3512.14940,0.21735
3510.22071,0.21928
3508.29202,0.22184
3506.36333,0.22408
3504.43463,0.22551
3502.50594,0.22773
3500.57725,0.23128
3498.64856,0.23444
3496.71986,0.23688
3494.79117,0.23955
3492.86248,0.24237
3490.93378,0.24471
3489.00509,0.24674
3487.07640,0.24912
3485.14771,0.25172
3483.21901,0.25387
3481.29032,0.25616
3479.36163,0.25926
3477.43294,0.26249
3475.50424,0.26530
3473.57555,0.26792
3471.64686,0.27027
3469.71816,0.27222
3467.78947,0.27435
3465.86078,0.27706
3463.93209,0.27997
3462.00339,0.28271
3460.07470,0.28554
3458.14601,0.28867
3456.21732,0.29173
3454.28862,0.29442
3452.35993,0.29676
3450.43124,0.29870
3448.50254,0.30036
3446.57385,0.30273
3444.64516,0.30605
3442.71647,0.30940
3440.78777,0.31239
3438.85908,0.31487
3436.93039,0.31704
3435.00170,0.31948
3433.07300,0.32233
3431.14431,0.32514
3429.21562,0.32784
3427.28693,0.33084
3425.35823,0.33387
3423.42954,0.33630
3421.50085,0.33835
3419.57215,0.34101
3417.64346,0.34416
3415.71477,0.34673
3413.78608,0.34866
3411.85738,0.35078
3409.92869,0.35335
3408.00000,0.35597
3406.07131,0.35826
3404.14261,0.36004
3402.21392,0.36165
3400.28523,0.36361
3398.35653,0.36600
3396.42784,0.36837
3394.49915,0.37014
3392.57046,0.37186
3390.64176,0.37438
3388.71307,0.37716
3386.78438,0.37936
3384.85569,0.38111
3382.92699,0.38277
3380.99830,0.38430
3379.06961,0.38575
3377.14092,0.38726
3375.21222,0.38875
3373.28353,0.38996
3371.35484,0.39073
3369.42614,0.39117
3367.49745,0.39192
3365.56876,0.39347
3363.64007,0.39515
3361.71137,0.39631
3359.78268,0.39746
3357.85399,0.39873
3355.92530,0.39966
3353.99660,0.40027
3352.06791,0.40085
3350.13922,0.40168
3348.21052,0.40272
3346.28183,0.40341
3344.35314,0.40370
3342.42445,0.40406
3340.49575,0.40441
3338.56706,0.40457
3336.63837,0.40489
3334.70968,0.40559
3332.78098,0.40633
3330.85229,0.40689
3328.92360,0.40714
3326.99490,0.40700
3325.06621,0.40695
3323.13752,0.40737
3321.20883,0.40796
3319.28013,0.40838
3317.35144,0.40860
3315.42275,0.40861
3313.49406,0.40857
3311.56536,0.40842
3309.63667,0.40799
3307.70798,0.40764
3305.77929,0.40784
3303.85059,0.40842
3301.92190,0.40883
3299.99321,0.40889
3298.06451,0.40880
3296.13582,0.40875
3294.20713,0.40871
3292.27844,0.40882
3290.34974,0.40930
3288.42105,0.41002
3286.49236,0.41062
3284.56367,0.41085
3282.63497,0.41093
3280.70628,0.41101
3278.77759,0.41087
3276.84889,0.41045
3274.92020,0.41024
3272.99151,0.41037
3271.06282,0.41063
3269.13412,0.41106
3267.20543,0.41158
3265.27674,0.41195
3263.34805,0.41204
3261.41935,0.41188
3259.49066,0.41159
3257.56197,0.41129
3255.63328,0.41118
3253.70458,0.41127
3251.77589,0.41132
3249.84720,0.41092
3247.91850,0.41007
3245.98981,0.40950
3244.06112,0.40956
3242.13243,0.40976
3240.20373,0.40951
3238.27504,0.40870
3236.34635,0.40753
3234.41766,0.40639
3232.48896,0.40571
3230.56027,0.40538
3228.63158,0.40499
3226.70288,0.40445
3224.77419,0.40367
3222.84550,0.40240
3220.91681,0.40078
3218.98811,0.39941
3217.05942,0.39822
3215.13073,0.39676
3213.20204,0.39518
3211.27334,0.39363
3209.34465,0.39200
3207.41596,0.39040
3205.48726,0.38874
3203.55857,0.38684
3201.62988,0.38461
3199.70119,0.38215
3197.77249,0.37978
3195.84380,0.37765
3193.91511,0.37554
3191.98642,0.37326
3190.05772,0.37076
3188.12903,0.36807
3186.20034,0.36529
3184.27165,0.36257
3182.34295,0.35988
3180.41426,0.35692
3178.48557,0.35391
3176.55687,0.35121
3174.62818,0.34848
3172.69949,0.34546
3170.77080,0.34232
3168.84210,0.33931
3166.91341,0.33647
3164.98472,0.33348
3163.05603,0.33019
3161.12733,0.32683
3159.19864,0.32351
3157.26995,0.31997
3155.34125,0.31613
3153.41256,0.31233
3151.48387,0.30900
3149.55518,0.30599
3147.62648,0.30286
3145.69779,0.29956
3143.76910,0.29618
3141.84041,0.29261
3139.91171,0.28896
3137.98302,0.28559
3136.05433,0.28238
3134.12564,0.27893
3132.19694,0.27535
3130.26825,0.27189
3128.33956,0.26849
3126.41086,0.26504
3124.48217,0.26139
3122.55348,0.25753
3120.62479,0.25368
3118.69609,0.24995
3116.76740,0.24654
3114.83871,0.24362
3112.91002,0.24094
3110.98132,0.23802
3109.05263,0.23481
3107.12394,0.23163
3105.19524,0.22846
3103.26655,0.22504
3101.33786,0.22160
3099.40917,0.21855
3097.48047,0.21560
3095.55178,0.21247
3093.62309,0.20941
3091.69440,0.20644
3089.76570,0.20340
3087.83701,0.20033
3085.90832,0.19733
3083.97962,0.19439
3082.05093,0.19131
3080.12224,0.18821
3078.19355,0.18551
3076.26485,0.18323
3074.33616,0.18093
3072.40747,0.17833
3070.47878,0.17544
3068.55008,0.17243
3066.62139,0.16960
3064.69270,0.16710
3062.76401,0.16475
3060.83531,0.16234
3058.90662,0.15974
3056.97793,0.15711
3055.04923,0.15474
3053.12054,0.15256
3051.19185,0.15024
3049.26316,0.14786
3047.33446,0.14564
3045.40577,0.14351
3043.47708,0.14133
3041.54839,0.13913
3039.61969,0.13692
3037.69100,0.13466
3035.76231,0.13235
3033.83361,0.13008
3031.90492,0.12803
3029.97623,0.12624
3028.04754,0.12450
3026.11884,0.12264
3024.19015,0.12069
3022.26146,0.11878
3020.33277,0.11700
3018.40407,0.11529
3016.47538,0.11343
3014.54669,0.11150
3012.61800,0.10977
3010.68930,0.10825
3008.76061,0.10672
3006.83192,0.10510
3004.90322,0.10349
3002.97453,0.10196
3001.04584,0.10047
2999.11715,0.09898
2997.18845,0.09744
2995.25976,0.09586
2993.33107,0.09435
2991.40238,0.09303
2989.47368,0.09179
2987.54499,0.09048
2985.61630,0.08908
2983.68760,0.08771
2981.75891,0.08640
2979.83022,0.08512
2977.90153,0.08384
2975.97283,0.08258
2974.04414,0.08132
2972.11545,0.08007
2970.18676,0.07892
2968.25806,0.07787
2966.32937,0.07685
2964.40068,0.07578
2962.47198,0.07457
2960.54329,0.07337
2958.61460,0.07238
2956.68591,0.07152
2954.75721,0.07064
2952.82852,0.06973
2950.89983,0.06880
2948.97114,0.06789
2947.04244,0.06703
2945.11375,0.06622
2943.18506,0.06529
2941.25637,0.06429
2939.32767,0.06335
2937.39898,0.06244
2935.47029,0.06153
2933.54159,0.06069
2931.61290,0.06000
2929.68421,0.05938
2927.75552,0.05866
2925.82682,0.05788
2923.89813,0.05715
2921.96944,0.05646
2920.04075,0.05586
2918.11205,0.05535
2916.18336,0.05481
2914.25467,0.05417
2912.32597,0.05352
2910.39728,0.05287
2908.46859,0.05218
2906.53990,0.05153
2904.61120,0.05099
2902.68251,0.05049
2900.75382,0.04999
2898.82513,0.04952
2896.89643,0.04905
2894.96774,0.04851
2893.03905,0.04792
2891.11036,0.04735
2889.18166,0.04685
2887.25297,0.04641
2885.32428,0.04595
2883.39558,0.04543
2881.46689,0.04491
2879.53820,0.04444
2877.60951,0.04410
2875.68081,0.04383
2873.75212,0.04351
2871.82343,0.04310
2869.89474,0.04259
2867.96604,0.04210
2866.03735,0.04173
2864.10866,0.04139
2862.17996,0.04101
2860.25127,0.04060
2858.32258,0.04014
2856.39389,0.03971
2854.46519,0.03937
2852.53650,0.03909
2850.60781,0.03887
2848.67912,0.03864
2846.75042,0.03833
2844.82173,0.03802
2842.89304,0.03780
2840.96434,0.03759
2839.03565,0.03730
2837.10696,0.03697
2835.17827,0.03667
2833.24957,0.03637
2831.32088,0.03603
2829.39219,0.03574
2827.46350,0.03556
2825.53480,0.03540
2823.60611,0.03520
2821.67742,0.03496
2819.74873,0.03467
2817.82003,0.03435
2815.89134,0.03409
2813.96265,0.03390
2812.03395,0.03373
2810.10526,0.03355
2808.17657,0.03335
2806.24788,0.03312
2804.31918,0.03287
2802.39049,0.03268
2800.46180,0.03254
2798.53311,0.03239
2796.60441,0.03221
2794.67572,0.03205
2792.74703,0.03192
2790.81833,0.03178
2788.88964,0.03161
2786.96095,0.03138
2785.03226,0.03113
2783.10356,0.03096
2781.17487,0.03082
2779.24618,0.03070
2777.31749,0.03060
2775.38879,0.03049
2773.46010,0.03033
2771.53141,0.03012
2769.60272,0.02992
2767.67402,0.02979
2765.74533,0.02967
2763.81664,0.02956
2761.88794,0.02948
2759.95925,0.02939
2758.03056,0.02924
2756.10187,0.02906
2754.17317,0.02891
2752.24448,0.02883
2750.31579,0.02883
2748.38710,0.02883
2746.45840,0.02871
2744.52971,0.02851
2742.60102,0.02826
2740.67232,0.02805
2738.74363,0.02797
2736.81494,0.02797
2734.88625,0.02793
2732.95755,0.02790
2731.02886,0.02787
2729.10017,0.02782
2727.17148,0.02778
2725.24278,0.02773
2723.31409,0.02760
2721.38540,0.02742
2719.45670,0.02727
2717.52801,0.02716
2715.59932,0.02707
2713.67063,0.02698
2711.74193,0.02692
2709.81324,0.02687
2707.88455,0.02680
2705.95586,0.02675
2704.02716,0.02674
2702.09847,0.02668
2700.16978,0.02661
2698.24109,0.02660
2696.31239,0.02660
2694.38370,0.02656
2692.45501,0.02648
2690.52631,0.02636
2688.59762,0.02626
2686.66893,0.02620
2684.74024,0.02620
2682.81154,0.02625
2680.88285,0.02630
2678.95416,0.02626
2677.02547,0.02614
2675.09677,0.02603
2673.16808,0.02597
2671.23939,0.02594
2669.31069,0.02594
2667.38200,0.02598
2665.45331,0.02602
2663.52462,0.02603
2661.59592,0.02605
2659.66723,0.02609
2657.73854,0.02610
2655.80985,0.02604
2653.88115,0.02598
2651.95246,0.02595
2650.02377,0.02590
2648.09508,0.02583
2646.16638,0.02579
2644.23769,0.02579
2642.30900,0.02580
2640.38030,0.02579
2638.45161,0.02578
2636.52292,0.02576
2634.59423,0.02569
2632.66553,0.02558
2630.73684,0.02546
2628.80815,0.02537
2626.87946,0.02533
2624.95076,0.02534
2623.02207,0.02535
2621.09338,0.02528
2619.16468,0.02520
2617.23599,0.02524
2615.30730,0.02533
2613.37861,0.02531
2611.44991,0.02517
2609.52122,0.02506
2607.59253,0.02505
2605.66384,0.02509
2603.73514,0.02505
2601.80645,0.02493
2599.87776,0.02487
2597.94906,0.02490
2596.02037,0.02494
2594.09168,0.02494
2592.16299,0.02494
2590.23429,0.02496
2588.30560,0.02497
2586.37691,0.02497
2584.44822,0.02498
2582.51952,0.02501
2580.59083,0.02504
2578.66214,0.02506
2576.73345,0.02508
2574.80475,0.02506
2572.87606,0.02504
2570.94737,0.02499
2569.01867,0.02486
2567.08998,0.02475
2565.16129,0.02471
2563.23260,0.02471
2561.30390,0.02471
2559.37521,0.02483
2557.44652,0.02510
2555.51783,0.02525
2553.58913,0.02521
2551.66044,0.02516
2549.73175,0.02512
2547.80305,0.02504
2545.87436,0.02509
2543.94567,0.02527
2542.01698,0.02531
2540.08828,0.02515
2538.15959,0.02505
2536.23090,0.02511
2534.30221,0.02519
2532.37351,0.02529
2530.44482,0.02542
2528.51613,0.02553
2526.58744,0.02556
2524.65874,0.02545
2522.73005,0.02531
2520.80136,0.02530
2518.87266,0.02542
2516.94397,0.02551
2515.01528,0.02548
2513.08659,0.02530
2511.15789,0.02508
2509.22920,0.02503
2507.30051,0.02519
2505.37182,0.02543
2503.44312,0.02562
2501.51443,0.02575
2499.58574,0.02585
2497.65704,0.02597
2495.72835,0.02610
2493.79966,0.02615
2491.87097,0.02605
2489.94227,0.02598
2488.01358,0.02604
2486.08489,0.02611
2484.15620,0.02614
2482.22750,0.02620
2480.29881,0.02631
2478.37012,0.02632
2476.44142,0.02624
2474.51273,0.02630
2472.58404,0.02649
2470.65535,0.02662
2468.72665,0.02663
2466.79796,0.02665
2464.86927,0.02670
2462.94058,0.02676
2461.01188,0.02697
2459.08319,0.02730
2457.15450,0.02757
2455.22581,0.02765
2453.29711,0.02754
2451.36842,0.02731
2449.43973,0.02715
2447.51103,0.02718
2445.58234,0.02731
2443.65365,0.02745
2441.72496,0.02763
2439.79626,0.02778
2437.86757,0.02778
2435.93888,0.02759
2434.01019,0.02741
2432.08149,0.02750
2430.15280,0.02775
2428.22411,0.02786
2426.29541,0.02780
2424.36672,0.02775
2422.43803,0.02780
2420.50934,0.02791
2418.58064,0.02798
2416.65195,0.02809
2414.72326,0.02833
2412.79457,0.02850
2410.86587,0.02854
2408.93718,0.02850
2407.00849,0.02843
2405.07980,0.02846
2403.15110,0.02863
2401.22241,0.02888
2399.29372,0.02906
2397.36502,0.02909
2395.43633,0.02907
2393.50764,0.02911
2391.57895,0.02928
2389.65025,0.02961
2387.72156,0.03018
2385.79287,0.03129
2383.86418,0.03345
2381.93548,0.03697
2380.00679,0.04155
2378.07810,0.04667
2376.14940,0.05201
2374.22071,0.05760
2372.29202,0.06352
2370.36333,0.06969
2368.43463,0.07575
2366.50594,0.08120
2364.57725,0.08564
2362.64856,0.08880
2360.71986,0.09033
2358.79117,0.08970
2356.86248,0.08666
2354.93378,0.08143
2353.00509,0.07439
2351.07640,0.06721
2349.14771,0.06350
2347.21901,0.06542
2345.29032,0.07105
2343.36163,0.07520
2341.43294,0.07619
2339.50424,0.07581
2337.57555,0.07496
2335.64686,0.07400
2333.71817,0.07341
2331.78947,0.07299
2329.86078,0.07183
2327.93209,0.07003
2326.00339,0.06860
2324.07470,0.06757
2322.14601,0.06575
2320.21732,0.06258
2318.28862,0.05889
2316.35993,0.05588
2314.43124,0.05392
2312.50255,0.05230
2310.57385,0.05046
2308.64516,0.04854
2306.71647,0.04665
2304.78777,0.04478
2302.85908,0.04324
2300.93039,0.04218
2299.00170,0.04140
2297.07300,0.04073
2295.14431,0.04007
2293.21562,0.03947
2291.28693,0.03892
2289.35823,0.03820
2287.42954,0.03733
2285.50085,0.03668
2283.57215,0.03648
2281.64346,0.03658
2279.71477,0.03673
2277.78608,0.03692
2275.85738,0.03721
2273.92869,0.03747
2272.00000,0.03762
2270.07131,0.03761
2268.14261,0.03736
2266.21392,0.03716
2264.28523,0.03724
2262.35654,0.03744
2260.42784,0.03762
2258.49915,0.03780
2256.57046,0.03795
2254.64176,0.03761
2252.71307,0.03663
2250.78438,0.03583
2248.85569,0.03592
2246.92699,0.03656
2244.99830,0.03700
2243.06961,0.03689
2241.14092,0.03656
2239.21222,0.03666
2237.28353,0.03703
2235.35484,0.03715
2233.42614,0.03735
2231.49745,0.03791
2229.56876,0.03818
2227.64007,0.03774
2225.71137,0.03710
2223.78268,0.03701
2221.85399,0.03767
2219.92530,0.03845
2217.99660,0.03889
2216.06791,0.03917
2214.13922,0.03915
2212.21053,0.03877
2210.28183,0.03844
2208.35314,0.03831
2206.42445,0.03836
2204.49575,0.03853
2202.56706,0.03875
2200.63837,0.03886
2198.70968,0.03872
2196.78098,0.03847
2194.85229,0.03832
2192.92360,0.03851
2190.99491,0.03867
2189.06621,0.03803
2187.13752,0.03738
2185.20883,0.03771
2183.28013,0.03832
2181.35144,0.03874
2179.42275,0.03900
2177.49406,0.03885
2175.56536,0.03868
2173.63667,0.03904
2171.70798,0.03996
2169.77929,0.04071
2167.85059,0.04077
2165.92190,0.04130
2163.99321,0.04299
2162.06451,0.04385
2160.13582,0.04196
2158.20713,0.03918
2156.27844,0.03860
2154.34974,0.03953
2152.42105,0.04003
2150.49236,0.04036
2148.56367,0.04141
2146.63497,0.04230
2144.70628,0.04201
2142.77759,0.04095
2140.84890,0.04007
2138.92020,0.03986
2136.99151,0.04005
2135.06282,0.04032
2133.13412,0.04089
2131.20543,0.04181
2129.27674,0.04253
2127.34805,0.04288
2125.41935,0.04315
2123.49066,0.04339
2121.56197,0.04366
2119.63328,0.04396
2117.70458,0.04408
2115.77589,0.04399
2113.84720,0.04396
2111.91850,0.04403
2109.98981,0.04397
2108.06112,0.04370
2106.13243,0.04340
2104.20373,0.04342
2102.27504,0.04367
2100.34635,0.04386
2098.41766,0.04408
2096.48896,0.04418
2094.56027,0.04394
2092.63158,0.04359
2090.70289,0.04341
2088.77419,0.04341
2086.84550,0.04366
2084.91681,0.04395
2082.98811,0.04385
2081.05942,0.04370
2079.13073,0.04378
2077.20204,0.04358
2075.27334,0.04310
2073.34465,0.04279
2071.41596,0.04272
2069.48727,0.04240
2067.55857,0.04164
2065.62988,0.04119
2063.70119,0.04150
2061.77249,0.04176
2059.84380,0.04140
2057.91511,0.04085
2055.98642,0.04075
2054.05772,0.04116
2052.12903,0.04174
2050.20034,0.04200
2048.27165,0.04144
2046.34295,0.04037
2044.41426,0.03992
2042.48557,0.04019
2040.55687,0.04004
2038.62818,0.03945
2036.69949,0.03906
2034.77080,0.03857
2032.84210,0.03796
2030.91341,0.03722
2028.98472,0.03653
2027.05603,0.03641
2025.12733,0.03570
2023.19864,0.03437
2021.26995,0.03422
2019.34126,0.03521
2017.41256,0.03620
2015.48387,0.03661
2013.55518,0.03633
2011.62648,0.03642
2009.69779,0.03742
2007.76910,0.03751
2005.84041,0.03598
2003.91171,0.03456
2001.98302,0.03450
2000.05433,0.03551
1998.12564,0.03643
1996.19694,0.03669
1994.26825,0.03618
1992.33956,0.03522
1990.41086,0.03457
1988.48217,0.03406
1986.55348,0.03378
1984.62479,0.03418
1982.69609,0.03454
1980.76740,0.03385
1978.83871,0.03266
1976.91002,0.03266
1974.98132,0.03345
1973.05263,0.03343
1971.12394,0.03213
1969.19525,0.03006
1967.26655,0.02904
1965.33786,0.02975
1963.40917,0.03073
1961.48047,0.03133
1959.55178,0.03155
1957.62309,0.03131
1955.69440,0.03141
1953.76570,0.03218
1951.83701,0.03257
1949.90832,0.03211
1947.97963,0.03166
1946.05093,0.03132
1944.12224,0.03062
1942.19355,0.03056
1940.26485,0.03137
1938.33616,0.03196
1936.40747,0.03231
1934.47878,0.03251
1932.55008,0.03236
1930.62139,0.03214
1928.69270,0.03224
1926.76401,0.03224
1924.83531,0.03126
1922.90662,0.02998
1920.97793,0.02938
1919.04923,0.02931
1917.12054,0.03031
1915.19185,0.03200
1913.26316,0.03266
1911.33446,0.03202
1909.40577,0.03130
1907.47708,0.03148
1905.54839,0.03215
1903.61969,0.03258
1901.69100,0.03265
1899.76231,0.03251
1897.83362,0.03202
1895.90492,0.03156
1893.97623,0.03167
1892.04754,0.03136
1890.11884,0.03043
1888.19015,0.03061
1886.26146,0.03160
1884.33277,0.03229
1882.40407,0.03279
1880.47538,0.03296
1878.54669,0.03290
1876.61800,0.03294
1874.68930,0.03277
1872.76061,0.03155
1870.83192,0.02876
1868.90322,0.02639
1866.97453,0.02777
1865.04584,0.03078
1863.11715,0.03243
1861.18845,0.03273
1859.25976,0.03259
1857.33107,0.03265
1855.40238,0.03304
1853.47368,0.03335
1851.54499,0.03310
1849.61630,0.03206
1847.68761,0.03035
1845.75891,0.02850
1843.83022,0.02852
1841.90153,0.03085
1839.97283,0.03256
1838.04414,0.03288
1836.11545,0.03303
1834.18676,0.03294
1832.25806,0.03127
1830.32937,0.02896
1828.40068,0.02903
1826.47199,0.03036
1824.54329,0.03154
1822.61460,0.03301
1820.68591,0.03409
1818.75721,0.03443
1816.82852,0.03463
1814.89983,0.03453
1812.97114,0.03350
1811.04244,0.03258
1809.11375,0.03323
1807.18506,0.03452
1805.25637,0.03488
1803.32767,0.03379
1801.39898,0.03235
1799.47029,0.03225
1797.54159,0.03273
1795.61290,0.03200
1793.68421,0.03012
1791.75552,0.03035
1789.82682,0.03381
1787.89813,0.03634
1785.96944,0.03671
1784.04075,0.03624
1782.11205,0.03580
1780.18336,0.03595
1778.25467,0.03658
1776.32598,0.03580
1774.39728,0.03272
1772.46859,0.03013
1770.53990,0.03216
1768.61120,0.03615
1766.68251,0.03900
1764.75382,0.03973
1762.82513,0.03885
1760.89643,0.03874
1758.96774,0.03964
1757.03905,0.04059
1755.11036,0.04147
1753.18166,0.04051
1751.25297,0.03711
1749.32428,0.03499
1747.39558,0.03693
1745.46689,0.03983
1743.53820,0.04166
1741.60951,0.04269
1739.68081,0.04387
1737.75212,0.04468
1735.82343,0.04334
1733.89474,0.04221
1731.96604,0.04605
1730.03735,0.05142
1728.10866,0.05591
1726.17997,0.05847
1724.25127,0.05946
1722.32258,0.05969
1720.39389,0.05798
1718.46519,0.05350
1716.53650,0.05277
1714.60781,0.05994
1712.67912,0.06688
1710.75042,0.07073
1708.82173,0.07166
1706.89304,0.07112
1704.96435,0.07182
1703.03565,0.07338
1701.10696,0.07367
1699.17827,0.07428
1697.24957,0.07871
1695.32088,0.08794
1693.39219,0.09611
1691.46350,0.09982
1689.53480,0.10142
1687.60611,0.10187
1685.67742,0.10118
1683.74873,0.10493
1681.82003,0.11401
1679.89134,0.12130
1677.96265,0.12608
1676.03395,0.12940
1674.10526,0.13267
1672.17657,0.13500
1670.24788,0.13821
1668.31918,0.14653
1666.39049,0.15414
1664.46180,0.15799
1662.53311,0.16198
1660.60441,0.16806
1658.67572,0.17245
1656.74703,0.17287
1654.81834,0.16994
1652.88964,0.17184
1650.96095,0.17879
1649.03226,0.18054
1647.10356,0.18292
1645.17487,0.19177
1643.24618,0.19897
1641.31749,0.20177
1639.38879,0.20086
1637.46010,0.19708
1635.53141,0.19639
1633.60272,0.20139
1631.67402,0.20390
1629.74533,0.20237
1627.81664,0.19865
1625.88794,0.19454
1623.95925,0.18998
1622.03056,0.18661
1620.10187,0.18397
1618.17317,0.17852
1616.24448,0.17227
1614.31579,0.17022
1612.38710,0.16814
1610.45840,0.16348
1608.52971,0.15811
1606.60102,0.15387
1604.67233,0.14996
1602.74363,0.14577
1600.81494,0.14205
1598.88625,0.13857
1596.95755,0.13447
1595.02886,0.13031
1593.10017,0.12710
1591.17148,0.12451
1589.24278,0.12204
1587.31409,0.11968
1585.38540,0.11722
1583.45671,0.11459
1581.52801,0.11166
1579.59932,0.10749
1577.67063,0.10139
1575.74193,0.09731
1573.81324,0.09781
1571.88455,0.09675
1569.95586,0.09336
1568.02716,0.09203
1566.09847,0.09199
1564.16978,0.09054
1562.24109,0.08704
1560.31239,0.07907
1558.38370,0.07123
1556.45501,0.07517
1554.52631,0.07953
1552.59762,0.08157
1550.66893,0.08192
1548.74024,0.08158
1546.81154,0.07931
1544.88285,0.07294
1542.95416,0.06358
1541.02547,0.05759
1539.09677,0.06457
1537.16808,0.07168
1535.23939,0.07261
1533.31070,0.07213
1531.38200,0.07378
1529.45331,0.07390
1527.52462,0.07079
1525.59592,0.06682
1523.66723,0.06296
1521.73854,0.06042
1519.80985,0.06191
1517.88115,0.06408
1515.95246,0.06677
1514.02377,0.06952
1512.09508,0.06902
1510.16638,0.06397
1508.23769,0.05612
1506.30900,0.05819
1504.38030,0.06766
1502.45161,0.07132
1500.52292,0.07053
1498.59423,0.06789
1496.66553,0.06795
1494.73684,0.07079
1492.80815,0.07081
1490.87946,0.06678
1488.95076,0.06446
1487.02207,0.06849
1485.09338,0.07277
1483.16469,0.07422
1481.23599,0.07408
1479.30730,0.07338
1477.37861,0.07105
1475.44991,0.06648
1473.52122,0.06292
1471.59253,0.06599
1469.66384,0.07087
1467.73514,0.07207
1465.80645,0.07075
1463.87776,0.07063
1461.94907,0.07070
1460.02037,0.06709
1458.09168,0.06044
1456.16299,0.06132
1454.23429,0.06762
1452.30560,0.07102
1450.37691,0.07163
1448.44822,0.07125
1446.51952,0.07209
1444.59083,0.07362
1442.66214,0.07425
1440.73345,0.07351
1438.80475,0.07115
1436.87606,0.06867
1434.94737,0.06922
1433.01867,0.07048
1431.08998,0.07053
1429.16129,0.07096
1427.23260,0.07168
1425.30390,0.07107
1423.37521,0.06979
1421.44652,0.06826
1419.51783,0.06619
1417.58913,0.06707
1415.66044,0.07051
1413.73175,0.07257
1411.80306,0.07305
1409.87436,0.07319
1407.94567,0.07290
1406.01698,0.07193
1404.08828,0.07157
1402.15959,0.07145
1400.23090,0.06984
1398.30221,0.06753
1396.37351,0.06655
1394.44482,0.06798
1392.51613,0.07064
1390.58744,0.07158
1388.65874,0.07051
1386.73005,0.07025
1384.80136,0.07193
1382.87266,0.07321
1380.94397,0.07322
1379.01528,0.07253
1377.08659,0.07110
1375.15789,0.06952
1373.22920,0.06991
1371.30051,0.07149
1369.37182,0.07218
1367.44312,0.07231
1365.51443,0.07157
1363.58574,0.06976
1361.65705,0.06956
1359.72835,0.07141
1357.79966,0.07265
1355.87097,0.07283
1353.94227,0.07292
1352.01358,0.07305
1350.08489,0.07299
1348.15620,0.07301
1346.22750,0.07316
1344.29881,0.07282
1342.37012,0.07117
1340.44143,0.06882
1338.51273,0.06851
1336.58404,0.07052
1334.65535,0.07227
1332.72665,0.07292
1330.79796,0.07301
1328.86927,0.07297
1326.94058,0.07292
1325.01188,0.07283
1323.08319,0.07248
1321.15450,0.07166
1319.22581,0.07092
1317.29711,0.07097
1315.36842,0.07136
1313.43973,0.07161
1311.51103,0.07205
1309.58234,0.07252
1307.65365,0.07272
1305.72496,0.07283
1303.79626,0.07298
1301.86757,0.07305
1299.93888,0.07303
1298.01019,0.07298
1296.08149,0.07297
1294.15280,0.07298
1292.22411,0.07293
1290.29542,0.07279
1288.36672,0.07269
1286.43803,0.07284
1284.50934,0.07310
1282.58064,0.07324
1280.65195,0.07329
1278.72326,0.07334
1276.79457,0.07334
1274.86587,0.07322
1272.93718,0.07299
1271.00849,0.07289
1269.07980,0.07303
1267.15110,0.07326
1265.22241,0.07336
1263.29372,0.07326
1261.36502,0.07311
1259.43633,0.07316
1257.50764,0.07337
1255.57895,0.07349
1253.65025,0.07358
1251.72156,0.07371
1249.79287,0.07378
1247.86418,0.07371
1245.93548,0.07354
1244.00679,0.07347
1242.07810,0.07363
1240.14941,0.07382
1238.22071,0.07385
1236.29202,0.07375
1234.36333,0.07369
1232.43463,0.07376
1230.50594,0.07382
1228.57725,0.07381
1226.64856,0.07378
1224.71986,0.07375
1222.79117,0.07374
1220.86248,0.07377
1218.93379,0.07377
1217.00509,0.07374
1215.07640,0.07366
1213.14771,0.07362
1211.21901,0.07365
1209.29032,0.07367
1207.36163,0.07358
1205.43294,0.07345
1203.50424,0.07341
1201.57555,0.07344
1199.64686,0.07349
1197.71817,0.07355
1195.78947,0.07360
1193.86078,0.07361
1191.93209,0.07359
1190.00339,0.07358
1188.07470,0.07363
1186.14601,0.07369
1184.21732,0.07371
1182.28862,0.07372
1180.35993,0.07379
1178.43124,0.07385
1176.50255,0.07383
1174.57385,0.07381
1172.64516,0.07396
1170.71647,0.07418
1168.78778,0.07430
1166.85908,0.07435
1164.93039,0.07448
1163.00170,0.07469
1161.07300,0.07485
1159.14431,0.07495
1157.21562,0.07511
1155.28693,0.07539
1153.35823,0.07567
1151.42954,0.07592
1149.50085,0.07621
1147.57216,0.07652
1145.64346,0.07681
1143.71477,0.07705
1141.78608,0.07731
1139.85738,0.07762
1137.92869,0.07794
1136.00000,0.07833
1134.07131,0.07877
1132.14261,0.07911
1130.21392,0.07941
1128.28523,0.07974
1126.35654,0.08001
1124.42784,0.08027
1122.49915,0.08067
1120.57046,0.08107
1118.64177,0.08138
1116.71307,0.08163
1114.78438,0.08184
1112.85569,0.08203
1110.92699,0.08223
1108.99830,0.08238
1107.06961,0.08251
1105.14092,0.08262
1103.21222,0.08270
1101.28353,0.08273
1099.35484,0.08270
1097.42615,0.08269
1095.49745,0.08278
1093.56876,0.08287
1091.64007,0.08287
1089.71137,0.08281
1087.78268,0.08272
1085.85399,0.08254
1083.92530,0.08232
1081.99660,0.08212
1080.06791,0.08187
1078.13922,0.08155
1076.21053,0.08126
1074.28183,0.08097
1072.35314,0.08066
1070.42445,0.08038
1068.49575,0.08018
1066.56706,0.07998
1064.63837,0.07966
1062.70968,0.07933
1060.78098,0.07913
1058.85229,0.07899
1056.92360,0.07890
1054.99491,0.07889
1053.06621,0.07888
1051.13752,0.07879
1049.20883,0.07869
1047.28014,0.07863
1045.35144,0.07858
1043.42275,0.07855
1041.49406,0.07850
1039.56536,0.07846
1037.63667,0.07846
1035.70798,0.07850
1033.77929,0.07848
1031.85059,0.07838
1029.92190,0.07830
1027.99321,0.07839
1026.06452,0.07856
1024.13582,0.07865
1022.20713,0.07865
1020.27844,0.07874
1018.34974,0.07904
1016.42105,0.07949
1014.49236,0.07992
1012.56367,0.08015
1010.63497,0.08029
1008.70628,0.08050
1006.77759,0.08077
1004.84890,0.08104
1002.92020,0.08132
1000.99151,0.08167
999.06282,0.08193
997.13413,0.08209
995.20543,0.08242
993.27674,0.08291
991.34805,0.08335
989.41935,0.08379
987.49066,0.08431
985.56197,0.08485
983.63328,0.08540
981.70458,0.08596
979.77589,0.08646
977.84720,0.08691
975.91851,0.08746
973.98981,0.08809
972.06112,0.08866
970.13243,0.08919
968.20373,0.08978
966.27504,0.09039
964.34635,0.09099
962.41766,0.09157
960.48896,0.09217
958.56027,0.09288
956.63158,0.09372
954.70289,0.09455
952.77419,0.09530
950.84550,0.09605
948.91681,0.09679
946.98811,0.09756
945.05942,0.09847
943.13073,0.09946
941.20204,0.10033
939.27334,0.10115
937.34465,0.10211
935.41596,0.10317
933.48727,0.10419
931.55857,0.10515
929.62988,0.10613
927.70119,0.10722
925.77250,0.10845
923.84380,0.10968
921.91511,0.11087
919.98642,0.11214
918.05772,0.11350
916.12903,0.11485
914.20034,0.11615
912.27165,0.11746
910.34295,0.11884
908.41426,0.12038
906.48557,0.12206
904.55688,0.12372
902.62818,0.12532
900.69949,0.12697
898.77080,0.12859
896.84210,0.13013
894.91341,0.13171
892.98472,0.13343
891.05603,0.13518
889.12733,0.13693
887.19864,0.13874
885.26995,0.14062
883.34126,0.14247
881.41256,0.14431
879.48387,0.14621
877.55518,0.14823
875.62649,0.15035
873.69779,0.15248
871.76910,0.15446
869.84041,0.15633
867.91171,0.15839
865.98302,0.16062
864.05433,0.16281
862.12564,0.16499
860.19694,0.16718
858.26825,0.16930
856.33956,0.17139
854.41087,0.17359
852.48217,0.17589
850.55348,0.17826
848.62479,0.18070
846.69609,0.18312
844.76740,0.18540
842.83871,0.18759
840.91002,0.18989
838.98132,0.19229
837.05263,0.19469
835.12394,0.19707
833.19525,0.19935
831.26655,0.20153
829.33786,0.20387
827.40917,0.20643
825.48047,0.20896
823.55178,0.21132
821.62309,0.21353
819.69440,0.21571
817.76570,0.21806
815.83701,0.22062
813.90832,0.22308
811.97963,0.22534
810.05093,0.22769
808.12224,0.23032
806.19355,0.23296
804.26486,0.23538
802.33616,0.23773
800.40747,0.24016
798.47878,0.24266
796.55008,0.24526
794.62139,0.24789
792.69270,0.25033
790.76401,0.25270
788.83531,0.25518
786.90662,0.25759
784.97793,0.25989
783.04924,0.26247
781.12054,0.26530
779.19185,0.26788
777.26316,0.27010
775.33446,0.27236
773.40577,0.27481
771.47708,0.27727
769.54839,0.27969
767.61969,0.28228
765.69100,0.28499
763.76231,0.28748
761.83362,0.28980
759.90492,0.29225
757.97623,0.29499
756.04754,0.29782
754.11885,0.30039
752.19015,0.30275
750.26146,0.30516
748.33277,0.30760
746.40407,0.30999
744.47538,0.31238
742.54669,0.31490
740.61800,0.31750
738.68930,0.31994
736.76061,0.32220
734.83192,0.32453
732.90323,0.32684
730.97453,0.32884
729.04584,0.33082
727.11715,0.33341
725.18845,0.33640
723.25976,0.33936
721.33107,0.34216
719.40238,0.34426
717.47368,0.34579
715.54499,0.34785
713.61630,0.35053
711.68761,0.35299
709.75891,0.35500
707.83022,0.35698
705.90153,0.35938
703.97283,0.36211
702.04414,0.36476
700.11545,0.36722
698.18676,0.36965
696.25806,0.37225
694.32937,0.37521
692.40068,0.37829
690.47199,0.38095
688.54329,0.38344
686.61460,0.38626
684.68591,0.38916
682.75722,0.39182
680.82852,0.39437
678.89983,0.39700
676.97114,0.39965
675.04244,0.40205
673.11375,0.40448
671.18506,0.40915
669.25637,0.41621
667.32767,0.41759
665.39898,0.41358
663.47029,0.41286
661.54160,0.41520
659.61290,0.41840
657.68421,0.42174
655.75552,0.42445
653.82682,0.42622
651.89813,0.42763
649.96944,0.42887
648.04075,0.42973
646.11205,0.43068
644.18336,0.43195
642.25467,0.43295
640.32598,0.43381
638.39728,0.43506
636.46859,0.43670
634.53990,0.43846
632.61121,0.43991
630.68251,0.44114
628.75382,0.44278
626.82513,0.44489
624.89643,0.44701
622.96774,0.44865
621.03905,0.45011
619.11036,0.45229
617.18166,0.45457
615.25297,0.45584
613.32428,0.45659
611.39559,0.45758
609.46689,0.45874
607.53820,0.45962
605.60951,0.46040
603.68081,0.46146
601.75212,0.46262
599.82343,0.46377
