  3.020       92
  3.037       68
  3.054       73
  3.071       89
  3.088       76
  3.105       68
  3.122       76
  3.139       78
  3.156       66
  3.173       76
  3.190       77
  3.207       75
  3.224       82
  3.241       70
  3.258       77
  3.275       84
  3.292       81
  3.309       75
  3.326       85
  3.343       76
  3.360       66
  3.377       74
  3.394       89
  3.411       71
  3.428       65
  3.445       74
  3.462       73
  3.479       77
  3.496       81
  3.513       81
  3.530       77
  3.547       75
  3.564       80
  3.581       72
  3.598       79
  3.615       84
  3.632       81
  3.649       67
  3.666       78
  3.683       86
  3.700       85
  3.717       80
  3.734       76
  3.751       74
  3.768       73
  3.785       69
  3.802       75
  3.819       86
  3.836       68
  3.853       81
  3.870       87
  3.887       93
  3.904       96
  3.921       81
  3.938       90
  3.955       78
  3.972       69
  3.989       79
  4.006       85
  4.023       74
  4.040       92
  4.057       88
  4.074       83
  4.091       72
  4.108       80
  4.125       98
  4.142       93
  4.159       92
  4.176       98
  4.193       84
  4.210       73
  4.227       75
  4.244       79
  4.261       90
  4.278       84
  4.295       80
  4.312       77
  4.329       86
  4.346       84
  4.363       81
  4.380       77
  4.397       85
  4.414       83
  4.431       74
  4.448       80
  4.465       80
  4.482       77
  4.499       84
  4.516       88
  4.533       88
  4.550       87
  4.567       82
  4.584       85
  4.601       88
  4.618       88
  4.635       99
  4.652       96
  4.669       91
  4.686       83
  4.703       83
  4.720       87
  4.737       92
  4.754       88
  4.771       79
  4.788       89
  4.805       99
  4.822       81
  4.839       96
  4.856       93
  4.873      103
  4.890       96
  4.907       85
  4.924       86
  4.941       82
  4.958       87
  4.975       76
  4.992       96
  5.009       83
  5.026       88
  5.043       89
  5.060       91
  5.077       93
  5.094       84
  5.111      105
  5.128      107
  5.145       80
  5.162       91
  5.179       80
  5.196       90
  5.213       87
  5.230      102
  5.247       96
  5.264       98
  5.281       86
  5.298       84
  5.315       91
  5.332       98
  5.349       93
  5.366       92
  5.383       90
  5.400       91
  5.417       95
  5.434       96
  5.451      101
  5.468       89
  5.485       76
  5.502       85
  5.519       82
  5.536       86
  5.553       88
  5.570       88
  5.587       98
  5.604       95
  5.621       83
  5.638       80
  5.655       96
  5.672       91
  5.689       95
  5.706       82
  5.723       95
  5.740       94
  5.757       91
  5.774       80
  5.791       68
  5.808       89
  5.825       89
  5.842      101
  5.859      105
  5.876       97
  5.893       90
  5.910       91
  5.927       90
  5.944       92
  5.961       99
  5.978       86
  5.995       96
  6.012       95
  6.029       84
  6.046      111
  6.063       81
  6.080       91
  6.097       80
  6.114      103
  6.131      100
  6.148       96
  6.165       87
  6.182       98
  6.199       97
  6.216       96
  6.233       97
  6.250       79
  6.267      103
  6.284      106
  6.301       95
  6.318       95
  6.335       94
  6.352       92
  6.369      103
  6.386      100
  6.403       95
  6.420      104
  6.437       95
  6.454       87
  6.471       94
  6.488       89
  6.505       93
  6.522       94
  6.539       88
  6.556       85
  6.573       86
  6.590       80
  6.607      101
  6.624      102
  6.641       93
  6.658       97
  6.675       96
  6.692      105
  6.709       99
  6.726       94
  6.743       91
  6.760       92
  6.777      100
  6.794       97
  6.811       75
  6.828      107
  6.845      115
  6.862       92
  6.879      107
  6.896       90
  6.913      100
  6.930      102
  6.947       93
  6.964       87
  6.981      107
  6.998      104
  7.015       85
  7.032      107
  7.049      100
  7.066       98
  7.083       95
  7.100       97
  7.117       91
  7.134       97
  7.151       86
  7.168       86
  7.185      101
  7.202      105
  7.219      103
  7.236      105
  7.253       96
  7.270       99
  7.287       98
  7.304      103
  7.321      109
  7.338      112
  7.355       93
  7.372       98
  7.389      108
  7.406      121
  7.423      114
  7.440      110
  7.457      102
  7.474       96
  7.491      108
  7.508      102
  7.525      104
  7.542      110
  7.559      104
  7.576      107
  7.593      119
  7.610      121
  7.627      124
  7.644      109
  7.661      116
  7.678      107
  7.695      115
  7.712      127
  7.729      128
  7.746      121
  7.763      130
  7.780      131
  7.797      127
  7.814      141
  7.831      132
  7.848      161
  7.865      151
  7.882      148
  7.899      137
  7.916      155
  7.933      138
  7.950      137
  7.967      183
  7.984      165
  8.001      152
  8.018      143
  8.035      166
  8.052      156
  8.069      150
  8.086      160
  8.103      132
  8.120      157
  8.137      164
  8.154      162
  8.171      142
  8.188      124
  8.205      121
  8.222      130
  8.239      142
  8.256      112
  8.273      112
  8.290      132
  8.307      122
  8.324      127
  8.341      137
  8.358      119
  8.375      111
  8.392      118
  8.409      123
  8.426      120
  8.443      118
  8.460      116
  8.477      119
  8.494      120
  8.511      117
  8.528      110
  8.545      107
  8.562      114
  8.579      117
  8.596      115
  8.613      126
  8.630      132
  8.647      108
  8.664      117
  8.681      143
  8.698      127
  8.715      161
  8.732      155
  8.749      170
  8.766      182
  8.783      178
  8.800      202
  8.817      210
  8.834      240
  8.851      283
  8.868      307
  8.885      347
  8.902      395
  8.919      381
  8.936      444
  8.953      457
  8.970      403
  8.987      391
  9.004      354
  9.021      307
  9.038      256
  9.055      269
  9.072      212
  9.089      179
  9.106      172
  9.123      158
  9.140      172
  9.157      163
  9.174      132
  9.191      140
  9.208      136
  9.225      128
  9.242      112
  9.259      119
  9.276      118
  9.293      112
  9.310      105
  9.327      113
  9.344      116
  9.361      110
  9.378      110
  9.395      102
  9.412      117
  9.429      118
  9.446      105
  9.463       98
  9.480      100
  9.497      105
  9.514       97
  9.531       90
  9.548       90
  9.565      101
  9.582      114
  9.599      107
  9.616       93
  9.633       89
  9.650       98
  9.667      101
  9.684      106
  9.701      101
  9.718      108
  9.735      102
  9.752      103
  9.769       76
  9.786      109
  9.803      107
  9.820      106
  9.837      100
  9.854       94
  9.871      108
  9.888       96
  9.905       92
  9.922       96
  9.939       83
  9.956       88
  9.973       90
  9.990       96
 10.007       99
 10.024      103
 10.041       88
 10.058       92
 10.075       95
 10.092       96
 10.109       77
 10.126       89
 10.143      104
 10.160      103
 10.177      107
 10.194      109
 10.211      100
 10.228       97
 10.245      101
 10.262       97
 10.279      109
 10.296      104
 10.313       94
 10.330       95
 10.347       90
 10.364       78
 10.381       93
 10.398       98
 10.415      104
 10.432      107
 10.449      100
 10.466       93
 10.483       96
 10.500       91
 10.517      101
 10.534      109
 10.551      104
 10.568       96
 10.585      103
 10.602      107
 10.619       94
 10.636      104
 10.653       99
 10.670       94
 10.687       95
 10.704      104
 10.721      117
 10.738       83
 10.755       92
 10.772       99
 10.789       95
 10.806      102
 10.823       99
 10.840       98
 10.857      115
 10.874      109
 10.891       93
 10.908       94
 10.925      120
 10.942       90
 10.959       85
 10.976      100
 10.993       88
 11.010       99
 11.027       93
 11.044      102
 11.061       92
 11.078       96
 11.095      105
 11.112      111
 11.129      119
 11.146      107
 11.163      109
 11.180      104
 11.197       94
 11.214       85
 11.231      102
 11.248      100
 11.265       94
 11.282      101
 11.299      108
 11.316       95
 11.333       86
 11.350      101
 11.367      114
 11.384      114
 11.401      108
 11.418       90
 11.435      101
 11.452      117
 11.469      104
 11.486      113
 11.503      111
 11.520      100
 11.537      114
 11.554      107
 11.571      108
 11.588      110
 11.605      121
 11.622      117
 11.639      116
 11.656      129
 11.673      112
 11.690      118
 11.707      105
 11.724      127
 11.741      146
 11.758      145
 11.775      153
 11.792      183
 11.809      246
 11.826      249
 11.843      211
 11.860      225
 11.877      154
 11.894      135
 11.911      120
 11.928      141
 11.945      105
 11.962      108
 11.979      106
 11.996      103
 12.013      115
 12.030      104
 12.047       89
 12.064      138
 12.081      142
 12.098      154
 12.115      175
 12.132      157
 12.149      147
 12.166      134
 12.183      129
 12.200      133
 12.217      123
 12.234      120
 12.251      114
 12.268      116
 12.285      108
 12.302      111
 12.319      115
 12.336       94
 12.353       93
 12.370       94
 12.387       99
 12.404      105
 12.421      104
 12.438      115
 12.455      107
 12.472       89
 12.489       89
 12.506       93
 12.523       94
 12.540      100
 12.557      101
 12.574      108
 12.591      105
 12.608       96
 12.625      101
 12.642      103
 12.659       94
 12.676      103
 12.693       97
 12.710      102
 12.727      100
 12.744      106
 12.761       89
 12.778       94
 12.795      105
 12.812       94
 12.829      119
 12.846       90
 12.863      104
 12.880      134
 12.897      112
 12.914      123
 12.931       93
 12.948      108
 12.965       97
 12.982      112
 12.999       93
 13.016      132
 13.033      111
 13.050      120
 13.067      121
 13.084      119
 13.101      119
 13.118      124
 13.135      128
 13.152      149
 13.169      166
 13.186      158
 13.203      161
 13.220      147
 13.237      132
 13.254      146
 13.271      146
 13.288      124
 13.305      121
 13.322      119
 13.339      109
 13.356      107
 13.373      105
 13.390      106
 13.407      105
 13.424      109
 13.441      116
 13.458      112
 13.475      111
 13.492      106
 13.509       92
 13.526      102
 13.543      114
 13.560      117
 13.577      113
 13.594      111
 13.611      105
 13.628       95
 13.645      102
 13.662       95
 13.679      114
 13.696      104
 13.713      111
 13.730      124
 13.747      104
 13.764      104
 13.781      108
 13.798      118
 13.815      114
 13.832      104
 13.849       96
 13.866       83
 13.883      115
 13.900      102
 13.917      105
 13.934      100
 13.951      101
 13.968      106
 13.985      116
 14.002      114
 14.019      101
 14.036      100
 14.053       98
 14.070      108
 14.087       97
 14.104      110
 14.121      105
 14.138       94
 14.155       97
 14.172      102
 14.189       89
 14.206       93
 14.223       97
 14.240       97
 14.257       91
 14.274      101
 14.291      118
 14.308      111
 14.325      102
 14.342       98
 14.359       99
 14.376      109
 14.393      115
 14.410      114
 14.427      116
 14.444      116
 14.461      116
 14.478      116
 14.495      116
 14.512      111
 14.529      109
 14.546      110
 14.563      116
 14.580      102
 14.597       95
 14.614      105
 14.631      109
 14.648       93
 14.665      114
 14.682       98
 14.699       95
 14.716      106
 14.733      102
 14.750      110
 14.767       99
 14.784      119
 14.801      104
 14.818       98
 14.835      123
 14.852      123
 14.869       89
 14.886      109
 14.903      122
 14.920      109
 14.937      131
 14.954      121
 14.971      114
 14.988      118
 15.005      124
 15.022      102
 15.039      112
 15.056      127
 15.073      111
 15.090      108
 15.107      110
 15.124      121
 15.141      109
 15.158      115
 15.175      125
 15.192      110
 15.209      114
 15.226      117
 15.243      123
 15.260      125
 15.277      121
 15.294      128
 15.311      133
 15.328      122
 15.345      116
 15.362      115
 15.379      111
 15.396      114
 15.413      121
 15.430      127
 15.447      122
 15.464      113
 15.481      115
 15.498      112
 15.515      115
 15.532      118
 15.549      131
 15.566      117
 15.583      117
 15.600      123
 15.617      118
 15.634      105
 15.651      111
 15.668      117
 15.685      132
 15.702      132
 15.719      121
 15.736      131
 15.753      129
 15.770      137
 15.787      124
 15.804      129
 15.821      133
 15.838      146
 15.855      129
 15.872      152
 15.889      136
 15.906      154
 15.923      142
 15.940      162
 15.957      153
 15.974      137
 15.991      140
 16.008      141
 16.025      153
 16.042      147
 16.059      156
 16.076      159
 16.093      156
 16.110      156
 16.127      166
 16.144      164
 16.161      158
 16.178      160
 16.195      170
 16.212      160
 16.229      172
 16.246      172
 16.263      144
 16.280      140
 16.297      156
 16.314      167
 16.331      160
 16.348      145
 16.365      142
 16.382      146
 16.399      155
 16.416      161
 16.433      154
 16.450      152
 16.467      136
 16.484      125
 16.501      146
 16.518      174
 16.535      148
 16.552      137
 16.569      148
 16.586      154
 16.603      145
 16.620      167
 16.637      175
 16.654      168
 16.671      161
 16.688      143
 16.705      146
 16.722      151
 16.739      155
 16.756      135
 16.773      116
 16.790      116
 16.807      150
 16.824      136
 16.841      131
 16.858      132
 16.875      126
 16.892      124
 16.909      119
 16.926      135
 16.943      142
 16.960      132
 16.977      158
 16.994      149
 17.011      117
 17.028      131
 17.045      154
 17.062      125
 17.079      137
 17.096      128
 17.113      129
 17.130      134
 17.147      133
 17.164      129
 17.181      143
 17.198      141
 17.215      132
 17.232      131
 17.249      135
 17.266      123
 17.283      126
 17.300      144
 17.317      134
 17.334      134
 17.351      138
 17.368      130
 17.385      120
 17.402      137
 17.419      136
 17.436      125
 17.453      141
 17.470      141
 17.487      126
 17.504      127
 17.521      120
 17.538      134
 17.555      147
 17.572      155
 17.589      149
 17.606      145
 17.623      128
 17.640      158
 17.657      154
 17.674      130
 17.691      116
 17.708      133
 17.725      131
 17.742      135
 17.759      138
 17.776      139
 17.793      152
 17.810      143
 17.827      141
 17.844      133
 17.861      161
 17.878      146
 17.895      163
 17.912      159
 17.929      165
 17.946      159
 17.963      157
 17.980      156
 17.997      153
 18.014      172
 18.031      167
 18.048      167
 18.065      180
 18.082      159
 18.099      144
 18.116      150
 18.133      154
 18.150      164
 18.167      172
 18.184      166
 18.201      164
 18.218      168
 18.235      166
 18.252      157
 18.269      169
 18.286      167
 18.303      174
 18.320      177
 18.337      172
 18.354      178
 18.371      173
 18.388      166
 18.405      163
 18.422      160
 18.439      174
 18.456      170
 18.473      165
 18.490      167
 18.507      170
 18.524      165
 18.541      161
 18.558      189
 18.575      214
 18.592      192
 18.609      195
 18.626      168
 18.643      167
 18.660      198
 18.677      172
 18.694      166
 18.711      181
 18.728      172
 18.745      154
 18.762      188
 18.779      193
 18.796      192
 18.813      162
 18.830      201
 18.847      222
 18.864      194
 18.881      287
 18.898      396
 18.915      528
 18.932      687
 18.949      706
 18.966      698
 18.983      562
 19.000      415
 19.017      283
 19.034      235
 19.051      227
 19.068      185
 19.085      178
 19.102      196
 19.119      200
 19.136      186
 19.153      177
 19.170      164
 19.187      165
 19.204      172
 19.221      172
 19.238      183
 19.255      162
 19.272      151
 19.289      148
 19.306      150
 19.323      147
 19.340      140
 19.357      139
 19.374      140
 19.391      141
 19.408      156
 19.425      159
 19.442      151
 19.459      161
 19.476      146
 19.493      152
 19.510      159
 19.527      151
 19.544      142
 19.561      148
 19.578      154
 19.595      147
 19.612      155
 19.629      148
 19.646      151
 19.663      147
 19.680      129
 19.697      137
 19.714      159
 19.731      143
 19.748      150
 19.765      124
 19.782      138
 19.799      156
 19.816      171
 19.833      125
 19.850      150
 19.867      154
 19.884      145
 19.901      140
 19.918      134
 19.935      142
 19.952      138
 19.969      141
 19.986      131
 20.003      139
 20.020      142
 20.037      134
 20.054      134
 20.071      138
 20.088      146
 20.105      161
 20.122      165
 20.139      152
 20.156      135
 20.173      123
 20.190      131
 20.207      141
 20.224      146
 20.241      166
 20.258      186
 20.275      194
 20.292      188
 20.309      165
 20.326      163
 20.343      159
 20.360      144
 20.377      136
 20.394      142
 20.411      152
 20.428      151
 20.445      172
 20.462      197
 20.479      179
 20.496      180
 20.513      160
 20.530      149
 20.547      152
 20.564      161
 20.581      138
 20.598      136
 20.615      115
 20.632      125
 20.649      127
 20.666      148
 20.683      116
 20.700      115
 20.717      123
 20.734      138
 20.751      125
 20.768      125
 20.785      122
 20.802      128
 20.819      135
 20.836      142
 20.853      149
 20.870      132
 20.887      128
 20.904      135
 20.921      114
 20.938      122
 20.955      120
 20.972      117
 20.989      125
 21.006      142
 21.023      117
 21.040      124
 21.057      126
 21.074      117
 21.091      126
 21.108      138
 21.125      139
 21.142      132
 21.159      123
 21.176      121
 21.193      129
 21.210      145
 21.227      138
 21.244      140
 21.261      143
 21.278      124
 21.295      121
 21.312      126
 21.329      127
 21.346      130
 21.363      126
 21.380      116
 21.397      125
 21.414      125
 21.431      124
 21.448      132
 21.465      123
 21.482      111
 21.499      121
 21.516      121
 21.533      127
 21.550      132
 21.567      120
 21.584      121
 21.601      118
 21.618      122
 21.635      143
 21.652      134
 21.669      127
 21.686      143
 21.703      123
 21.720      122
 21.737      114
 21.754      127
 21.771      136
 21.788      116
 21.805      125
 21.822      120
 21.839      132
 21.856      132
 21.873      128
 21.890      130
 21.907      137
 21.924      135
 21.941      134
 21.958      123
 21.975      125
 21.992      126
 22.009      129
 22.026      123
 22.043      119
 22.060      120
 22.077      129
 22.094      124
 22.111      128
 22.128      124
 22.145      146
 22.162      138
 22.179      120
 22.196      136
 22.213      138
 22.230      126
 22.247      130
 22.264      125
 22.281      131
 22.298      141
 22.315      152
 22.332      156
 22.349      164
 22.366      159
 22.383      169
 22.400      158
 22.417      166
 22.434      173
 22.451      196
 22.468      194
 22.485      187
 22.502      156
 22.519      154
 22.536      143
 22.553      137
 22.570      130
 22.587      129
 22.604      157
 22.621      143
 22.638      136
 22.655      139
 22.672      118
 22.689      139
 22.706      135
 22.723      143
 22.740      126
 22.757      129
 22.774      136
 22.791      145
 22.808      123
 22.825      136
 22.842      115
 22.859      150
 22.876      144
 22.893      124
 22.910      140
 22.927      131
 22.944      142
 22.961      127
 22.978      150
 22.995      167
 23.012      194
 23.029      208
 23.046      236
 23.063      244
 23.080      252
 23.097      241
 23.114      189
 23.131      181
 23.148      158
 23.165      150
 23.182      149
 23.199      145
 23.216      143
 23.233      140
 23.250      130
 23.267      140
 23.284      155
 23.301      147
 23.318      143
 23.335      141
 23.352      128
 23.369      141
 23.386      126
 23.403      131
 23.420      128
 23.437      138
 23.454      159
 23.471      187
 23.488      197
 23.505      210
 23.522      218
 23.539      262
 23.556      266
 23.573      241
 23.590      252
 23.607      244
 23.624      235
 23.641      198
 23.658      184
 23.675      160
 23.692      181
 23.709      148
 23.726      154
 23.743      158
 23.760      168
 23.777      194
 23.794      200
 23.811      206
 23.828      208
 23.845      233
 23.862      244
 23.879      244
 23.896      205
 23.913      202
 23.930      200
 23.947      182
 23.964      181
 23.981      170
 23.998      176
 24.015      181
 24.032      180
 24.049      196
 24.066      190
 24.083      190
 24.100      199
 24.117      211
 24.134      223
 24.151      236
 24.168      240
 24.185      251
 24.202      293
 24.219      315
 24.236      323
 24.253      299
 24.270      283
 24.287      269
 24.304      273
 24.321      258
 24.338      262
 24.355      248
 24.372      233
 24.389      230
 24.406      225
 24.423      220
 24.440      219
 24.457      222
 24.474      225
 24.491      195
 24.508      169
 24.525      189
 24.542      199
 24.559      173
 24.576      174
 24.593      180
 24.610      161
 24.627      155
 24.644      158
 24.661      145
 24.678      153
 24.695      153
 24.712      144
 24.729      153
 24.746      153
 24.763      165
 24.780      145
 24.797      148
 24.814      145
 24.831      168
 24.848      142
 24.865      162
 24.882      135
 24.899      128
 24.916      147
 24.933      150
 24.950      136
 24.967      145
 24.984      141
 25.001      149
 25.018      142
 25.035      143
 25.052      141
 25.069      130
 25.086      134
 25.103      158
 25.120      148
 25.137      143
 25.154      150
 25.171      141
 25.188      152
 25.205      147
 25.222      137
 25.239      136
 25.256      134
 25.273      144
 25.290      158
 25.307      151
 25.324      153
 25.341      144
 25.358      124
 25.375      136
 25.392      140
 25.409      157
 25.426      133
 25.443      151
 25.460      127
 25.477      141
 25.494      132
 25.511      174
 25.528      159
 25.545      149
 25.562      145
 25.579      150
 25.596      137
 25.613      148
 25.630      138
 25.647      149
 25.664      134
 25.681      125
 25.698      140
 25.715      133
 25.732      124
 25.749      153
 25.766      137
 25.783      153
 25.800      138
 25.817      134
 25.834      135
 25.851      133
 25.868      135
 25.885      146
 25.902      146
 25.919      136
 25.936      122
 25.953      120
 25.970      124
 25.987      125
 26.004      129
 26.021      133
 26.038      138
 26.055      136
 26.072      144
 26.089      141
 26.106      148
 26.123      132
 26.140      126
 26.157      138
 26.174      145
 26.191      145
 26.208      141
 26.225      152
 26.242      153
 26.259      149
 26.276      141
 26.293      146
 26.310      151
 26.327      139
 26.344      163
 26.361      152
 26.378      137
 26.395      159
 26.412      129
 26.429      146
 26.446      165
 26.463      148
 26.480      145
 26.497      142
 26.514      145
 26.531      169
 26.548      167
 26.565      213
 26.582      223
 26.599      249
 26.616      235
 26.633      291
 26.650      273
 26.667      260
 26.684      232
 26.701      225
 26.718      210
 26.735      211
 26.752      170
 26.769      146
 26.786      150
 26.803      132
 26.820      157
 26.837      158
 26.854      139
 26.871      149
 26.888      156
 26.905      173
 26.922      169
 26.939      147
 26.956      146
 26.973      164
 26.990      170
 27.007      174
 27.024      161
 27.041      152
 27.058      160
 27.075      188
 27.092      174
 27.109      170
 27.126      184
 27.143      192
 27.160      199
 27.177      201
 27.194      205
 27.211      228
 27.228      248
 27.245      239
 27.262      235
 27.279      268
 27.296      271
 27.313      273
 27.330      275
 27.347      288
 27.364      283
 27.381      286
 27.398      299
 27.415      363
 27.432      347
 27.449      385
 27.466      368
 27.483      375
 27.500      403
 27.517      345
 27.534      357
 27.551      330
 27.568      277
 27.585      261
 27.602      274
 27.619      247
 27.636      234
 27.653      209
 27.670      192
 27.687      173
 27.704      184
 27.721      183
 27.738      148
 27.755      156
 27.772      159
 27.789      172
 27.806      178
 27.823      191
 27.840      185
 27.857      211
 27.874      243
 27.891      322
 27.908      463
 27.925      582
 27.942      695
 27.959      655
 27.976      574
 27.993      478
 28.010      353
 28.027      287
 28.044      219
 28.061      190
 28.078      177
 28.095      161
 28.112      162
 28.129      157
 28.146      156
 28.163      133
 28.180      152
 28.197      178
 28.214      160
 28.231      165
 28.248      163
 28.265      154
 28.282      152
 28.299      151
 28.316      151
 28.333      175
 28.350      155
 28.367      140
 28.384      152
 28.401      184
 28.418      170
 28.435      163
 28.452      171
 28.469      139
 28.486      158
 28.503      156
 28.520      146
 28.537      145
 28.554      189
 28.571      137
 28.588      145
 28.605      153
 28.622      154
 28.639      141
 28.656      175
 28.673      154
 28.690      146
 28.707      169
 28.724      172
 28.741      142
 28.758      155
 28.775      174
 28.792      166
 28.809      187
 28.826      184
 28.843      234
 28.860      355
 28.877      463
 28.894      546
 28.911      621
 28.928      558
 28.945      477
 28.962      350
 28.979      236
 28.996      177
 29.013      169
 29.030      161
 29.047      148
 29.064      149
 29.081      160
 29.098      170
 29.115      165
 29.132      146
 29.149      146
 29.166      147
 29.183      146
 29.200      148
 29.217      146
 29.234      151
 29.251      154
 29.268      144
 29.285      154
 29.302      157
 29.319      143
 29.336      146
 29.353      141
 29.370      151
 29.387      155
 29.404      143
 29.421      135
 29.438      142
 29.455      135
 29.472      156
 29.489      149
 29.506      145
 29.523      163
 29.540      143
 29.557      155
 29.574      135
 29.591      134
 29.608      163
 29.625      137
 29.642      162
 29.659      137
 29.676      142
 29.693      151
 29.710      162
 29.727      142
 29.744      156
 29.761      149
 29.778      157
 29.795      156
 29.812      144
 29.829      152
 29.846      145
 29.863      159
 29.880      154
 29.897      147
 29.914      154
 29.931      154
 29.948      154
 29.965      143
 29.982      123
 29.999      134
 30.016      158
 30.033      178
 30.050      162
 30.067      138
 30.084      156
 30.101      156
 30.118      152
 30.135      147
 30.152      139
 30.169      130
 30.186      139
 30.203      135
 30.220      146
 30.237      155
 30.254      154
 30.271      155
 30.288      150
 30.305      140
 30.322      142
 30.339      139
 30.356      151
 30.373      160
 30.390      163
 30.407      154
 30.424      140
 30.441      171
 30.458      164
 30.475      147
 30.492      151
 30.509      142
 30.526      162
 30.543      140
 30.560      154
 30.577      139
 30.594      154
 30.611      149
 30.628      145
 30.645      182
 30.662      137
 30.679      145
 30.696      170
 30.713      161
 30.730      169
 30.747      154
 30.764      181
 30.781      198
 30.798      174
 30.815      181
 30.832      178
 30.849      164
 30.866      186
 30.883      207
 30.900      192
 30.917      187
 30.934      194
 30.951      224
 30.968      218
 30.985      187
 31.002      203
 31.019      233
 31.036      243
 31.053      252
 31.070      252
 31.087      238
 31.104      235
 31.121      238
 31.138      257
 31.155      266
 31.172      259
 31.189      251
 31.206      280
 31.223      288
 31.240      297
 31.257      280
 31.274      272
 31.291      276
 31.308      259
 31.325      230
 31.342      218
 31.359      221
 31.376      195
 31.393      212
 31.410      206
 31.427      222
 31.444      208
 31.461      240
 31.478      222
 31.495      230
 31.512      255
 31.529      249
 31.546      242
 31.563      240
 31.580      222
 31.597      218
 31.614      210
 31.631      228
 31.648      238
 31.665      273
 31.682      275
 31.699      266
 31.716      314
 31.733      337
 31.750      341
 31.767      335
 31.784      355
 31.801      365
 31.818      352
 31.835      353
 31.852      365
 31.869      345
 31.886      334
 31.903      336
 31.920      348
 31.937      398
 31.954      494
 31.971      620
 31.988      823
 32.005     1150
 32.022     1496
 32.039     1614
 32.056     1485
 32.073     1297
 32.090     1013
 32.107      717
 32.124      517
 32.141      398
 32.158      364
 32.175      370
 32.192      347
 32.209      324
 32.226      297
 32.243      281
 32.260      269
 32.277      230
 32.294      235
 32.311      217
 32.328      212
 32.345      204
 32.362      209
 32.379      191
 32.396      174
 32.413      195
 32.430      172
 32.447      185
 32.464      188
 32.481      205
 32.498      217
 32.515      194
 32.532      177
 32.549      174
 32.566      218
 32.583      178
 32.600      216
 32.617      199
 32.634      176
 32.651      191
 32.668      186
 32.685      183
 32.702      184
 32.719      189
 32.736      194
 32.753      188
 32.770      205
 32.787      205
 32.804      206
 32.821      196
 32.838      183
 32.855      202
 32.872      235
 32.889      213
 32.906      195
 32.923      185
 32.940      203
 32.957      220
 32.974      208
 32.991      200
 33.008      208
 33.025      209
 33.042      205
 33.059      199
 33.076      201
 33.093      218
 33.110      215
 33.127      194
 33.144      183
 33.161      201
 33.178      210
 33.195      196
 33.212      207
 33.229      195
 33.246      218
 33.263      218
 33.280      210
 33.297      212
 33.314      196
 33.331      195
 33.348      201
 33.365      207
 33.382      208
 33.399      190
 33.416      220
 33.433      249
 33.450      253
 33.467      261
 33.484      255
 33.501      286
 33.518      334
 33.535      362
 33.552      355
 33.569      342
 33.586      311
 33.603      303
 33.620      296
 33.637      310
 33.654      306
 33.671      360
 33.688      457
 33.705      613
 33.722      759
 33.739      942
 33.756     1054
 33.773     1029
 33.790      933
 33.807      812
 33.824      653
 33.841      562
 33.858      543
 33.875      559
 33.892      574
 33.909      593
 33.926      571
 33.943      553
 33.960      534
 33.977      479
 33.994      443
 34.011      398
 34.028      371
 34.045      336
 34.062      316
 34.079      306
 34.096      282
 34.113      268
 34.130      244
 34.147      234
 34.164      228
 34.181      225
 34.198      237
 34.215      230
 34.232      222
 34.249      213
 34.266      216
 34.283      215
 34.300      207
 34.317      211
 34.334      205
 34.351      189
 34.368      188
 34.385      201
 34.402      199
 34.419      201
 34.436      186
 34.453      200
 34.470      218
 34.487      213
 34.504      191
 34.521      217
 34.538      172
 34.555      186
 34.572      196
 34.589      192
 34.606      176
 34.623      184
 34.640      191
 34.657      194
 34.674      182
 34.691      199
 34.708      170
 34.725      189
 34.742      202
 34.759      192
 34.776      183
 34.793      180
 34.810      187
 34.827      188
 34.844      191
 34.861      189
 34.878      191
 34.895      182
 34.912      183
 34.929      190
 34.946      177
 34.963      183
 34.980      186
 34.997      192
 35.014      189
 35.031      193
 35.048      189
 35.065      180
 35.082      178
 35.099      197
 35.116      199
 35.133      193
 35.150      206
 35.167      193
 35.184      175
 35.201      197
 35.218      211
 35.235      196
 35.252      204
 35.269      184
 35.286      197
 35.303      200
 35.320      204
 35.337      204
 35.354      203
 35.371      192
 35.388      210
 35.405      221
 35.422      176
 35.439      198
 35.456      186
 35.473      217
 35.490      201
 35.507      216
 35.524      223
 35.541      265
 35.558      244
 35.575      234
 35.592      264
 35.609      268
 35.626      222
 35.643      209
 35.660      255
 35.677      229
 35.694      247
 35.711      259
 35.728      246
 35.745      264
 35.762      248
 35.779      258
 35.796      237
 35.813      244
 35.830      232
 35.847      264
 35.864      281
 35.881      278
 35.898      282
 35.915      271
 35.932      266
 35.949      254
 35.966      287
 35.983      294
 36.000      281
 36.017      290
 36.034      289
 36.051      295
 36.068      302
 36.085      317
 36.102      321
 36.119      340
 36.136      369
 36.153      383
 36.170      433
 36.187      487
 36.204      505
 36.221      501
 36.238      526
 36.255      474
 36.272      498
 36.289      489
 36.306      441
 36.323      425
 36.340      372
 36.357      378
 36.374      407
 36.391      397
 36.408      367
 36.425      367
 36.442      383
 36.459      385
 36.476      396
 36.493      360
 36.510      371
 36.527      350
 36.544      372
 36.561      354
 36.578      357
 36.595      367
 36.612      362
 36.629      286
 36.646      314
 36.663      306
 36.680      283
 36.697      289
 36.714      304
 36.731      300
 36.748      276
 36.765      265
 36.782      268
 36.799      274
 36.816      273
 36.833      268
 36.850      282
 36.867      271
 36.884      248
 36.901      261
 36.918      270
 36.935      256
 36.952      241
 36.969      249
 36.986      255
 37.003      245
 37.020      236
 37.037      232
 37.054      255
 37.071      249
 37.088      246
 37.105      243
 37.122      246
 37.139      248
 37.156      248
 37.173      237
 37.190      232
 37.207      213
 37.224      212
 37.241      216
 37.258      223
 37.275      230
 37.292      225
 37.309      244
 37.326      235
 37.343      220
 37.360      239
 37.377      213
 37.394      213
 37.411      239
 37.428      202
 37.445      210
 37.462      224
 37.479      203
 37.496      211
 37.513      199
 37.530      213
 37.547      209
 37.564      216
 37.581      202
 37.598      228
 37.615      223
 37.632      198
 37.649      210
 37.666      230
 37.683      208
 37.700      179
 37.717      217
 37.734      218
 37.751      218
 37.768      201
 37.785      202
 37.802      202
 37.819      207
 37.836      210
 37.853      210
 37.870      178
 37.887      176
 37.904      200
 37.921      199
 37.938      192
 37.955      178
 37.972      194
 37.989      211
 38.006      220
 38.023      225
 38.040      221
 38.057      216
 38.074      224
 38.091      222
 38.108      224
 38.125      258
 38.142      255
 38.159      243
 38.176      262
 38.193      287
 38.210      312
 38.227      318
 38.244      326
 38.261      388
 38.278      402
 38.295      438
 38.312      392
 38.329      431
 38.346      377
 38.363      401
 38.380      389
 38.397      387
 38.414      371
 38.431      348
 38.448      364
 38.465      393
 38.482      434
 38.499      486
 38.516      602
 38.533      663
 38.550      638
 38.567      550
 38.584      437
 38.601      376
 38.618      285
 38.635      275
 38.652      253
 38.669      246
 38.686      214
 38.703      209
 38.720      206
 38.737      200
 38.754      193
 38.771      198
 38.788      197
 38.805      194
 38.822      189
 38.839      195
 38.856      196
 38.873      195
 38.890      204
 38.907      192
 38.924      178
 38.941      188
 38.958      194
 38.975      202
 38.992      199
 39.009      176
 39.026      179
 39.043      181
 39.060      181
 39.077      175
 39.094      180
 39.111      180
 39.128      185
 39.145      182
 39.162      171
 39.179      170
 39.196      181
 39.213      186
 39.230      186
 39.247      192
 39.264      200
 39.281      165
 39.298      173
 39.315      202
 39.332      197
 39.349      217
 39.366      190
 39.383      200
 39.400      192
 39.417      200
 39.434      196
 39.451      186
 39.468      189
 39.485      197
 39.502      198
 39.519      202
 39.536      217
 39.553      202
 39.570      184
 39.587      189
 39.604      199
 39.621      198
 39.638      194
 39.655      183
 39.672      199
 39.689      194
 39.706      206
 39.723      196
 39.740      189
 39.757      181
 39.774      192
 39.791      200
 39.808      198
 39.825      216
 39.842      217
 39.859      207
 39.876      203
 39.893      196
 39.910      201
 39.927      207
 39.944      193
 39.961      192
 39.978      210
 39.995      224
 40.012      203
 40.029      224
 40.046      241
 40.063      209
 40.080      207
 40.097      206
 40.114      201
 40.131      194
 40.148      205
 40.165      229
 40.182      194
 40.199      223
 40.216      244
 40.233      210
 40.250      230
 40.267      220
 40.284      208
 40.301      223
 40.318      233
 40.335      232
 40.352      228
 40.369      194
 40.386      222
 40.403      214
 40.420      202
 40.437      250
 40.454      230
 40.471      266
 40.488      249
 40.505      271
 40.522      261
 40.539      275
 40.556      254
 40.573      246
 40.590      257
 40.607      279
 40.624      278
 40.641      276
 40.658      272
 40.675      302
 40.692      299
 40.709      283
 40.726      267
 40.743      244
 40.760      218
 40.777      211
 40.794      195
 40.811      197
 40.828      207
 40.845      192
 40.862      184
 40.879      210
 40.896      200
 40.913      189
 40.930      212
 40.947      219
 40.964      206
 40.981      203
 40.998      210
 41.015      198
 41.032      202
 41.049      181
 41.066      185
 41.083      201
 41.100      213
 41.117      187
 41.134      187
 41.151      219
 41.168      208
 41.185      182
 41.202      179
 41.219      176
 41.236      209
 41.253      184
 41.270      188
 41.287      200
 41.304      182
 41.321      199
 41.338      191
 41.355      193
 41.372      200
 41.389      204
 41.406      188
 41.423      173
 41.440      194
 41.457      223
 41.474      203
 41.491      210
 41.508      195
 41.525      213
 41.542      215
 41.559      208
 41.576      205
 41.593      191
 41.610      201
 41.627      218
 41.644      189
 41.661      202
 41.678      210
 41.695      203
 41.712      203
 41.729      198
 41.746      199
 41.763      216
 41.780      229
 41.797      220
 41.814      215
 41.831      198
 41.848      195
 41.865      212
 41.882      209
 41.899      193
 41.916      209
 41.933      210
 41.950      220
 41.967      218
 41.984      202
 42.001      199
 42.018      205
 42.035      202
 42.052      176
 42.069      190
 42.086      189
 42.103      179
 42.120      178
 42.137      208
 42.154      218
 42.171      226
 42.188      222
 42.205      218
 42.222      190
 42.239      201
 42.256      200
 42.273      200
 42.290      202
 42.307      199
 42.324      197
 42.341      165
 42.358      206
 42.375      215
 42.392      192
 42.409      179
 42.426      182
 42.443      190
 42.460      174
 42.477      162
 42.494      188
 42.511      205
 42.528      201
 42.545      201
 42.562      190
 42.579      212
 42.596      196
 42.613      191
 42.630      184
 42.647      183
 42.664      197
 42.681      193
 42.698      208
 42.715      194
 42.732      189
 42.749      210
 42.766      200
 42.783      205
 42.800      202
 42.817      208
 42.834      208
 42.851      189
 42.868      181
 42.885      179
 42.902      191
 42.919      207
 42.936      221
 42.953      209
 42.970      195
 42.987      202
 43.004      193
 43.021      186
 43.038      215
 43.055      208
 43.072      200
 43.089      199
 43.106      214
 43.123      208
 43.140      196
 43.157      192
 43.174      195
 43.191      235
 43.208      201
 43.225      193
 43.242      211
 43.259      224
 43.276      220
 43.293      222
 43.310      231
 43.327      235
 43.344      230
 43.361      234
 43.378      223
 43.395      206
 43.412      209
 43.429      222
 43.446      231
 43.463      261
 43.480      213
 43.497      216
 43.514      215
 43.531      241
 43.548      222
 43.565      214
 43.582      215
 43.599      243
 43.616      254
 43.633      253
 43.650      240
 43.667      211
 43.684      223
 43.701      229
 43.718      246
 43.735      239
 43.752      229
 43.769      250
 43.786      268
 43.803      267
 43.820      274
 43.837      280
 43.854      286
 43.871      286
 43.888      289
 43.905      288
 43.922      274
 43.939      271
 43.956      262
 43.973      243
 43.990      218
 44.007      213
 44.024      232
 44.041      221
 44.058      235
 44.075      208
 44.092      203
 44.109      201
 44.126      214
 44.143      201
 44.160      207
 44.177      208
 44.194      189
 44.211      206
 44.228      200
 44.245      237
 44.262      225
 44.279      239
 44.296      238
 44.313      242
 44.330      230
 44.347      245
 44.364      258
 44.381      266
 44.398      264
 44.415      247
 44.432      260
 44.449      271
 44.466      271
 44.483      249
 44.500      271
 44.517      255
 44.534      258
 44.551      260
 44.568      252
 44.585      278
 44.602      261
 44.619      250
 44.636      232
 44.653      230
 44.670      203
 44.687      207
 44.704      224
 44.721      216
 44.738      215
 44.755      228
 44.772      226
 44.789      220
 44.806      205
 44.823      214
 44.840      224
 44.857      226
 44.874      223
 44.891      212
 44.908      201
 44.925      220
 44.942      222
 44.959      212
 44.976      215
 44.993      221
 45.010      208
 45.027      223
 45.044      224
 45.061      216
 45.078      207
 45.095      194
 45.112      211
 45.129      191
 45.146      204
 45.163      229
 45.180      220
 45.197      203
 45.214      202
 45.231      197
 45.248      207
 45.265      218
 45.282      224
 45.299      224
 45.316      198
 45.333      236
 45.350      220
 45.367      210
 45.384      220
 45.401      245
 45.418      231
 45.435      248
 45.452      220
 45.469      217
 45.486      229
 45.503      226
 45.520      199
 45.537      193
 45.554      188
 45.571      189
 45.588      215
 45.605      219
 45.622      207
 45.639      219
 45.656      230
 45.673      222
 45.690      210
 45.707      211
 45.724      243
 45.741      225
 45.758      211
 45.775      222
 45.792      250
 45.809      239
 45.826      232
 45.843      238
 45.860      244
 45.877      252
 45.894      260
 45.911      265
 45.928      266
 45.945      253
 45.962      230
 45.979      214
 45.996      238
 46.013      230
 46.030      227
 46.047      235
 46.064      258
 46.081      239
 46.098      225
 46.115      250
 46.132      229
 46.149      268
 46.166      252
 46.183      257
 46.200      235
 46.217      230
 46.234      251
 46.251      222
 46.268      240
 46.285      249
 46.302      254
 46.319      247
 46.336      229
 46.353      269
 46.370      236
 46.387      270
 46.404      264
 46.421      274
 46.438      266
 46.455      266
 46.472      256
 46.489      289
 46.506      283
 46.523      292
 46.540      238
 46.557      251
 46.574      286
 46.591      267
 46.608      263
 46.625      290
 46.642      290
 46.659      290
 46.676      312
 46.693      292
 46.710      284
 46.727      296
 46.744      311
 46.761      316
 46.778      311
 46.795      301
 46.812      296
 46.829      312
 46.846      313
 46.863      309
 46.880      295
 46.897      267
 46.914      247
 46.931      254
 46.948      268
 46.965      268
 46.982      257
 46.999      265
 47.016      253
 47.033      252
 47.050      242
 47.067      221
 47.084      217
 47.101      221
 47.118      229
 47.135      245
 47.152      234
 47.169      231
 47.186      223
 47.203      250
 47.220      280
 47.237      254
 47.254      300
 47.271      265
 47.288      240
 47.305      232
 47.322      255
 47.339      221
 47.356      221
 47.373      223
 47.390      202
 47.407      210
 47.424      199
 47.441      219
 47.458      211
 47.475      221
 47.492      212
 47.509      201
 47.526      203
 47.543      201
 47.560      205
 47.577      223
 47.594      221
 47.611      220
 47.628      211
 47.645      220
 47.662      229
 47.679      223
 47.696      220
 47.713      210
 47.730      209
 47.747      220
 47.764      227
 47.781      228
 47.798      213
 47.815      217
 47.832      214
 47.849      212
 47.866      234
 47.883      241
 47.900      266
 47.917      296
 47.934      282
 47.951      259
 47.968      255
 47.985      241
 48.002      234
 48.019      250
 48.036      241
 48.053      219
 48.070      227
 48.087      247
 48.104      235
 48.121      221
 48.138      261
 48.155      238
 48.172      230
 48.189      231
 48.206      225
 48.223      233
 48.240      245
 48.257      259
 48.274      264
 48.291      285
 48.308      304
 48.325      264
 48.342      250
 48.359      253
 48.376      252
 48.393      256
 48.410      274
 48.427      283
 48.444      268
 48.461      285
 48.478      314
 48.495      305
 48.512      321
 48.529      336
 48.546      333
 48.563      355
 48.580      377
 48.597      404
 48.614      406
 48.631      456
 48.648      550
 48.665      672
 48.682      797
 48.699      892
 48.716      913
 48.733      850
 48.750      710
 48.767      579
 48.784      481
 48.801      396
 48.818      352
 48.835      329
 48.852      309
 48.869      314
 48.886      318
 48.903      289
 48.920      296
 48.937      309
 48.954      298
 48.971      291
 48.988      297
 49.005      324
 49.022      306
 49.039      289
 49.056      288
 49.073      275
 49.090      276
 49.107      280
 49.124      264
 49.141      286
 49.158      288
 49.175      289
 49.192      282
 49.209      265
 49.226      283
 49.243      267
 49.260      283
 49.277      290
 49.294      301
 49.311      317
 49.328      297
 49.345      348
 49.362      348
 49.379      331
 49.396      376
 49.413      387
 49.430      328
 49.447      315
 49.464      324
 49.481      312
 49.498      294
 49.515      308
 49.532      298
 49.549      296
 49.566      295
 49.583      294
 49.600      299
 49.617      292
 49.634      314
 49.651      334
 49.668      305
 49.685      291
 49.702      309
 49.719      323
 49.736      331
 49.753      338
 49.770      318
 49.787      310
 49.804      333
 49.821      336
 49.838      347
 49.855      367
 49.872      351
 49.889      344
 49.906      329
 49.923      339
 49.940      331
 49.957      334
 49.974      313
 49.991      278
 50.008      326
 50.025      299
 50.042      284
 50.059      295
 50.076      283
 50.093      289
 50.110      285
 50.127      288
 50.144      272
 50.161      297
 50.178      280
 50.195      270
 50.212      281
 50.229      238
 50.246      274
 50.263      297
 50.280      282
 50.297      268
 50.314      280
 50.331      277
 50.348      274
 50.365      272
 50.382      274
 50.399      299
 50.416      270
 50.433      258
 50.450      288
 50.467      285
 50.484      281
 50.501      284
 50.518      288
 50.535      314
 50.552      331
 50.569      330
 50.586      352
 50.603      359
 50.620      362
 50.637      313
 50.654      276
 50.671      301
 50.688      310
 50.705      269
 50.722      263
 50.739      269
 50.756      262
 50.773      260
 50.790      255
 50.807      241
 50.824      255
 50.841      274
 50.858      262
 50.875      272
 50.892      269
 50.909      270
 50.926      256
 50.943      260
 50.960      247
 50.977      247
 50.994      265
 51.011      244
 51.028      244
 51.045      250
 51.062      262
 51.079      265
 51.096      275
 51.113      271
 51.130      258
 51.147      254
 51.164      241
 51.181      243
 51.198      286
 51.215      273
 51.232      272
 51.249      280
 51.266      254
 51.283      269
 51.300      273
 51.317      253
 51.334      259
 51.351      262
 51.368      253
 51.385      262
 51.402      282
 51.419      269
 51.436      250
 51.453      247
 51.470      239
 51.487      271
 51.504      280
 51.521      288
 51.538      284
 51.555      279
 51.572      285
 51.589      303
 51.606      311
 51.623      310
 51.640      315
 51.657      314
 51.674      327
 51.691      346
 51.708      365
 51.725      357
 51.742      350
 51.759      357
 51.776      353
 51.793      357
 51.810      369
 51.827      377
 51.844      360
 51.861      346
 51.878      337
 51.895      345
 51.912      328
 51.929      315
 51.946      315
 51.963      310
 51.980      286
 51.997      290
 52.014      275
 52.031      268
 52.048      285
 52.065      295
 52.082      280
 52.099      274
 52.116      269
 52.133      250
 52.150      255
 52.167      242
 52.184      258
 52.201      261
 52.218      256
 52.235      259
 52.252      252
 52.269      262
 52.286      262
 52.303      256
 52.320      253
 52.337      275
 52.354      265
 52.371      234
 52.388      259
 52.405      236
 52.422      248
 52.439      253
 52.456      239
 52.473      249
 52.490      262
 52.507      270
 52.524      263
 52.541      252
 52.558      254
 52.575      255
 52.592      238
 52.609      255
 52.626      268
 52.643      271
 52.660      266
 52.677      245
 52.694      224
 52.711      220
 52.728      232
 52.745      236
 52.762      232
 52.779      233
 52.796      233
 52.813      223
 52.830      241
 52.847      239
 52.864      233
 52.881      247
 52.898      248
 52.915      260
 52.932      257
 52.949      237
 52.966      246
 52.983      250
 53.000      238
 53.017      250
 53.034      251
 53.051      277
 53.068      236
 53.085      260
 53.102      255
 53.119      241
 53.136      281
 53.153      253
 53.170      282
 53.187      240
 53.204      272
 53.221      243
 53.238      233
 53.255      280
 53.272      254
 53.289      246
 53.306      249
 53.323      269
 53.340      266
 53.357      263
 53.374      253
 53.391      267
 53.408      249
 53.425      261
 53.442      284
 53.459      255
 53.476      256
 53.493      252
 53.510      274
 53.527      266
 53.544      296
 53.561      309
 53.578      295
 53.595      284
 53.612      297
 53.629      289
 53.646      283
 53.663      303
 53.680      332
 53.697      320
 53.714      317
 53.731      324
 53.748      323
 53.765      311
 53.782      305
 53.799      280
 53.816      276
 53.833      277
 53.850      277
 53.867      270
 53.884      256
 53.901      257
 53.918      242
 53.935      276
 53.952      259
 53.969      273
 53.986      241
 54.003      261
 54.020      299
 54.037      259
 54.054      250
 54.071      261
 54.088      261
 54.105      258
 54.122      271
 54.139      260
 54.156      238
 54.173      292
 54.190      253
 54.207      271
 54.224      244
 54.241      292
 54.258      302
 54.275      261
 54.292      303
 54.309      312
 54.326      307
 54.343      314
 54.360      345
 54.377      349
 54.394      385
 54.411      445
 54.428      471
 54.445      462
 54.462      540
 54.479      637
 54.496      607
 54.513      558
 54.530      481
 54.547      442
 54.564      384
 54.581      351
 54.598      317
 54.615      287
 54.632      302
 54.649      303
 54.666      308
 54.683      297
 54.700      278
 54.717      275
 54.734      274
 54.751      264
 54.768      272
 54.785      269
 54.802      281
 54.819      271
 54.836      257
 54.853      284
 54.870      258
 54.887      255
 54.904      263
 54.921      270
 54.938      273
 54.955      271
 54.972      261
 54.989      264
 55.006      293
 55.023      292
 55.040      356
 55.057      334
 55.074      381
 55.091      458
 55.108      445
 55.125      512
 55.142      509
 55.159      439
 55.176      444
 55.193      397
 55.210      398
 55.227      362
 55.244      378
 55.261      325
 55.278      352
 55.295      323
 55.312      347
 55.329      334
 55.346      360
 55.363      351
 55.380      341
 55.397      347
 55.414      312
 55.431      322
 55.448      337
 55.465      317
 55.482      314
 55.499      322
 55.516      339
 55.533      343
 55.550      349
 55.567      333
 55.584      319
 55.601      339
 55.618      371
 55.635      363
 55.652      379
 55.669      413
 55.686      376
 55.703      355
 55.720      382
 55.737      383
 55.754      355
 55.771      346
 55.788      351
 55.805      334
 55.822      301
 55.839      300
 55.856      290
 55.873      299
 55.890      333
 55.907      313
 55.924      296
 55.941      305
 55.958      296
 55.975      340
 55.992      380
 56.009      337
 56.026      374
 56.043      359
 56.060      395
 56.077      372
 56.094      380
 56.111      367
 56.128      348
 56.145      380
 56.162      396
 56.179      359
 56.196      359
 56.213      378
 56.230      372
 56.247      394
 56.264      390
 56.281      432
 56.298      456
 56.315      451
 56.332      469
 56.349      482
 56.366      470
 56.383      467
 56.400      427
 56.417      414
 56.434      393
 56.451      378
 56.468      357
 56.485      323
 56.502      324
 56.519      311
 56.536      338
 56.553      340
 56.570      330
 56.587      326
 56.604      307
 56.621      293
 56.638      308
 56.655      308
 56.672      278
 56.689      283
 56.706      287
 56.723      281
 56.740      296
 56.757      298
 56.774      286
 56.791      288
 56.808      290
 56.825      293
 56.842      294
 56.859      318
 56.876      320
 56.893      294
 56.910      315
 56.927      326
 56.944      339
 56.961      312
 56.978      302
 56.995      331
 57.012      338
 57.029      320
 57.046      337
 57.063      364
 57.080      359
 57.097      350
 57.114      372
 57.131      413
 57.148      381
 57.165      441
 57.182      449
 57.199      446
 57.216      458
 57.233      448
 57.250      473
 57.267      469
 57.284      467
 57.301      444
 57.318      374
 57.335      366
 57.352      371
 57.369      349
 57.386      348
 57.403      329
 57.420      316
 57.437      311
 57.454      294
 57.471      295
 57.488      320
 57.505      307
 57.522      303
 57.539      310
 57.556      297
 57.573      300
 57.590      315
 57.607      300
 57.624      289
 57.641      296
 57.658      302
 57.675      317
 57.692      321
 57.709      297
 57.726      275
 57.743      293
 57.760      326
 57.777      312
 57.794      301
 57.811      310
 57.828      314
 57.845      307
 57.862      340
 57.879      333
 57.896      321
 57.913      346
 57.930      333
 57.947      321
 57.964      302
 57.981      310
 57.998      321
 58.015      297
 58.032      269
 58.049      271
 58.066      273
 58.083      290
 58.100      291
 58.117      294
 58.134      327
 58.151      311
 58.168      292
 58.185      341
 58.202      328
 58.219      291
 58.236      326
 58.253      310
 58.270      320
 58.287      313
 58.304      289
 58.321      301
 58.338      285
 58.355      283
 58.372      305
 58.389      275
 58.406      301
 58.423      293
 58.440      307
 58.457      312
 58.474      291
 58.491      292
 58.508      299
 58.525      301
 58.542      304
 58.559      306
 58.576      295
 58.593      295
 58.610      320
 58.627      337
 58.644      346
 58.661      343
 58.678      348
 58.695      337
 58.712      329
 58.729      321
 58.746      324
 58.763      323
 58.780      330
 58.797      332
 58.814      342
 58.831      356
 58.848      347
 58.865      336
 58.882      367
 58.899      363
 58.916      366
 58.933      391
 58.950      362
 58.967      345
 58.984      364
 59.001      366
 59.018      385
 59.035      384
 59.052      335
 59.069      328
 59.086      354
 59.103      364
 59.120      352
 59.137      344
 59.154      337
 59.171      356
 59.188      363
 59.205      367
 59.222      376
 59.239      380
 59.256      430
 59.273      415
 59.290      432
 59.307      444
 59.324      453
 59.341      487
 59.358      561
 59.375      611
 59.392      626
 59.409      636
 59.426      558
 59.443      498
 59.460      426
 59.477      406
 59.494      388
 59.511      376
 59.528      383
 59.545      365
 59.562      342
 59.579      316
 59.596      322
 59.613      323
 59.630      329
 59.647      329
 59.664      334
 59.681      342
 59.698      348
 59.715      333
 59.732      320
 59.749      330
 59.766      357
 59.783      335
 59.800      337
 59.817      307
 59.834      299
 59.851      336
 59.868      331
 59.885      314
 59.902      329
 59.919      329
 59.936      331
 59.953      307
 59.970      312
 59.987      293
 60.004      294
 60.021      291
 60.038      312
 60.055      303
 60.072      289
 60.089      298
 60.106      292
 60.123      267
 60.140      306
 60.157      312
 60.174      294
 60.191      290
 60.208      303
 60.225      285
 60.242      303
 60.259      295
 60.276      294
 60.293      284
 60.310      264
 60.327      264
 60.344      261
 60.361      273
 60.378      285
 60.395      282
 60.412      289
 60.429      302
 60.446      281
 60.463      286
 60.480      290
 60.497      294
 60.514      300
 60.531      292
 60.548      271
 60.565      274
 60.582      279
 60.599      277
 60.616      293
 60.633      283
 60.650      267
 60.667      266
 60.684      286
 60.701      291
 60.718      252
 60.735      265
 60.752      263
 60.769      276
 60.786      294
 60.803      275
 60.820      277
 60.837      257
 60.854      276
 60.871      266
 60.888      277
 60.905      286
 60.922      298
 60.939      259
 60.956      296
 60.973      273
 60.990      274
 61.007      259
 61.024      283
 61.041      290
 61.058      273
 61.075      294
 61.092      286
 61.109      305
 61.126      315
 61.143      322
 61.160      344
 61.177      333
 61.194      335
 61.211      333
 61.228      317
 61.245      273
 61.262      320
 61.279      309
 61.296      291
 61.313      288
 61.330      294
 61.347      275
 61.364      255
 61.381      288
 61.398      298
 61.415      278
 61.432      263
 61.449      293
 61.466      266
 61.483      243
 61.500      256
 61.517      274
 61.534      274
 61.551      265
 61.568      272
 61.585      284
 61.602      285
 61.619      269
 61.636      260
 61.653      291
 61.670      286
 61.687      260
 61.704      270
 61.721      259
 61.738      301
 61.755      329
 61.772      333
 61.789      315
 61.806      372
 61.823      390
 61.840      429
 61.857      386
 61.874      372
 61.891      336
 61.908      313
 61.925      256
 61.942      282
 61.959      301
 61.976      247
 61.993      287
 62.010      265
 62.027      263
 62.044      291
 62.061      286
 62.078      280
 62.095      296
 62.112      256
 62.129      262
 62.146      261
 62.163      284
 62.180      267
 62.197      269
 62.214      253
 62.231      288
 62.248      288
 62.265      273
 62.282      259
 62.299      284
 62.316      258
 62.333      270
 62.350      269
 62.367      266
 62.384      275
 62.401      279
 62.418      274
 62.435      261
 62.452      269
 62.469      281
 62.486      274
 62.503      283
 62.520      280
 62.537      280
 62.554      277
 62.571      276
 62.588      270
 62.605      281
 62.622      279
 62.639      281
 62.656      288
 62.673      295
 62.690      290
 62.707      286
 62.724      280
 62.741      266
 62.758      291
 62.775      285
 62.792      294
 62.809      293
 62.826      288
 62.843      281
 62.860      282
 62.877      274
 62.894      290
 62.911      281
 62.928      296
 62.945      312
 62.962      307
 62.979      291
 62.996      317
 63.013      320
 63.030      291
 63.047      338
 63.064      296
 63.081      308
 63.098      315
 63.115      312
 63.132      306
 63.149      296
 63.166      307
 63.183      293
 63.200      316
 63.217      277
 63.234      297
 63.251      308
 63.268      308
 63.285      326
 63.302      313
 63.319      310
 63.336      319
 63.353      310
 63.370      314
 63.387      303
 63.404      312
 63.421      293
 63.438      292
 63.455      283
 63.472      284
 63.489      283
 63.506      287
 63.523      284
 63.540      270
 63.557      260
 63.574      293
 63.591      311
 63.608      301
 63.625      287
 63.642      283
 63.659      297
 63.676      290
 63.693      299
 63.710      278
 63.727      262
 63.744      275
 63.761      290
 63.778      296
 63.795      323
 63.812      308
 63.829      310
 63.846      265
 63.863      270
 63.880      278
 63.897      269
 63.914      290
 63.931      301
 63.948      261
 63.965      266
 63.982      267
 63.999      323
 64.016      287
 64.033      269
 64.050      259
 64.067      259
 64.084      289
 64.101      282
 64.118      291
 64.135      288
 64.152      303
 64.169      330
 64.186      308
 64.203      282
 64.220      252
 64.237      266
 64.254      266
 64.271      281
 64.288      290
 64.305      297
 64.322      300
 64.339      294
 64.356      275
 64.373      283
 64.390      286
 64.407      257
 64.424      276
 64.441      283
 64.458      264
 64.475      277
 64.492      284
 64.509      279
 64.526      286
 64.543      306
 64.560      289
 64.577      287
 64.594      298
 64.611      293
 64.628      308
 64.645      314
 64.662      305
 64.679      302
 64.696      307
 64.713      305
 64.730      307
 64.747      276
 64.764      294
 64.781      304
 64.798      302
 64.815      308
 64.832      288
 64.849      311
 64.866      299
 64.883      295
 64.900      291
 64.917      294
 64.934      281
 64.951      284
 64.968      288
 64.985      279
 65.002      344
 65.019      289
 65.036      330
 65.053      330
 65.070      329
 65.087      323
 65.104      355
 65.121      385
 65.138      441
 65.155      421
 65.172      428
 65.189      418
 65.206      388
 65.223      376
 65.240      396
 65.257      384
 65.274      355
 65.291      326
 65.308      309
 65.325      338
 65.342      336
 65.359      336
 65.376      319
 65.393      297
 65.410      287
 65.427      295
 65.444      310
 65.461      312
 65.478      309
 65.495      297
 65.512      284
 65.529      316
 65.546      321
 65.563      301
 65.580      299
 65.597      310
 65.614      307
 65.631      307
 65.648      308
 65.665      310
 65.682      296
 65.699      305
 65.716      300
 65.733      275
 65.750      294
 65.767      263
 65.784      272
 65.801      288
 65.818      284
 65.835      272
 65.852      280
 65.869      307
 65.886      293
 65.903      291
 65.920      306
 65.937      297
 65.954      301
 65.971      328
 65.988      277
 66.005      279
 66.022      302
 66.039      342
 66.056      268
 66.073      292
 66.090      325
 66.107      300
 66.124      308
 66.141      301
 66.158      291
 66.175      303
 66.192      300
 66.209      323
 66.226      308
 66.243      314
 66.260      316
 66.277      309
 66.294      300
 66.311      309
 66.328      317
 66.345      326
 66.362      322
 66.379      316
 66.396      301
 66.413      294
 66.430      294
 66.447      292
 66.464      304
 66.481      330
 66.498      316
 66.515      307
 66.532      328
 66.549      322
 66.566      302
 66.583      307
 66.600      323
 66.617      323
 66.634      324
 66.651      323
 66.668      329
 66.685      314
 66.702      336
 66.719      338
 66.736      344
 66.753      298
 66.770      317
 66.787      303
 66.804      300
 66.821      313
 66.838      316
 66.855      315
 66.872      337
 66.889      319
 66.906      311
 66.923      292
 66.940      312
 66.957      306
 66.974      331
 66.991      322
 67.008      334
 67.025      320
 67.042      317
 67.059      328
 67.076      299
 67.093      314
 67.110      340
 67.127      328
 67.144      321
 67.161      324
 67.178      325
 67.195      305
 67.212      313
 67.229      350
 67.246      359
 67.263      329
 67.280      324
 67.297      324
 67.314      342
 67.331      333
 67.348      352
 67.365      392
 67.382      385
 67.399      423
 67.416      448
 67.433      464
 67.450      453
 67.467      408
 67.484      381
 67.501      370
 67.518      361
 67.535      378
 67.552      378
 67.569      365
 67.586      355
 67.603      333
 67.620      340
 67.637      358
 67.654      344
 67.671      330
 67.688      358
 67.705      346
 67.722      333
 67.739      358
 67.756      361
 67.773      340
 67.790      330
 67.807      346
 67.824      341
 67.841      381
 67.858      381
 67.875      346
 67.892      339
 67.909      373
 67.926      343
 67.943      366
 67.960      366
 67.977      360
 67.994      361
 68.011      376
 68.028      375
 68.045      369
 68.062      370
 68.079      322
 68.096      386
 68.113      348
 68.130      348
 68.147      368
 68.164      344
 68.181      369
 68.198      349
 68.215      357
 68.232      370
 68.249      357
 68.266      337
 68.283      357
 68.300      356
 68.317      342
 68.334      338
 68.351      321
 68.368      339
 68.385      325
 68.402      333
 68.419      345
 68.436      337
 68.453      347
 68.470      335
 68.487      319
 68.504      307
 68.521      317
 68.538      307
 68.555      298
 68.572      304
 68.589      318
 68.606      344
 68.623      331
 68.640      321
 68.657      320
 68.674      321
 68.691      333
 68.708      345
 68.725      328
 68.742      337
 68.759      361
 68.776      342
 68.793      306
 68.810      324
 68.827      349
 68.844      348
 68.861      321
 68.878      315
 68.895      345
 68.912      331
 68.929      291
 68.946      318
 68.963      349
 68.980      298
 68.997      311
 69.014      323
 69.031      320
 69.048      333
 69.065      312
 69.082      293
 69.099      343
 69.116      314
 69.133      312
 69.150      352
 69.167      337
 69.184      330
 69.201      310
 69.218      324
 69.235      322
 69.252      336
 69.269      328
 69.286      314
 69.303      312
 69.320      345
 69.337      336
 69.354      319
 69.371      314
 69.388      327
 69.405      314
 69.422      315
 69.439      322
 69.456      313
 69.473      306
 69.490      315
 69.507      306
 69.524      295
 69.541      300
 69.558      301
 69.575      297
 69.592      300
 69.609      330
 69.626      326
 69.643      311
 69.660      289
 69.677      294
 69.694      313
 69.711      286
 69.728      298
 69.745      284
 69.762      287
 69.779      308
 69.796      317
 69.813      296
 69.830      285
 69.847      293
 69.864      301
 69.881      323
 69.898      305
 69.915      306
 69.932      311
 69.949      315
 69.966      296
 69.983      298
 70.000      316
 70.017      264
 70.034      291
 70.051      290
 70.068      305
 70.085      312
 70.102      320
 70.119      325
 70.136      309
 70.153      294
 70.170      311
 70.187      304
 70.204      311
 70.221      326
 70.238      333
 70.255      316
 70.272      292
 70.289      331
 70.306      347
 70.323      293
 70.340      285
 70.357      295
 70.374      294
 70.391      313
 70.408      331
 70.425      298
 70.442      301
 70.459      314
 70.476      309
 70.493      310
 70.510      299
 70.527      307
 70.544      296
 70.561      307
 70.578      302
 70.595      309
 70.612      295
 70.629      315
 70.646      322
 70.663      300
 70.680      308
 70.697      278
 70.714      298
 70.731      302
 70.748      304
 70.765      290
 70.782      314
 70.799      299
 70.816      313
 70.833      305
 70.850      313
 70.867      315
 70.884      298
 70.901      269
 70.918      303
 70.935      310
 70.952      312
 70.969      332
 70.986      331
 71.003      310
 71.020      311
 71.037      346
 71.054      343
 71.071      326
 71.088      375
 71.105      409
 71.122      409
 71.139      406
 71.156      405
 71.173      384
 71.190      372
 71.207      340
 71.224      303
 71.241      316
 71.258      324
 71.275      337
 71.292      329
 71.309      308
 71.326      294
 71.343      304
 71.360      313
 71.377      287
 71.394      301
 71.411      321
 71.428      310
 71.445      309
 71.462      295
 71.479      297
 71.496      308
 71.513      304
 71.530      280
 71.547      290
 71.564      316
 71.581      308
 71.598      313
 71.615      292
 71.632      308
 71.649      298
 71.666      289
 71.683      309
 71.700      340
 71.717      308
 71.734      325
 71.751      341
 71.768      291
 71.785      326
 71.802      298
 71.819      295
 71.836      327
 71.853      317
 71.870      294
 71.887      291
 71.904      293
 71.921      268
 71.938      301
 71.955      313
 71.972      318
 71.989      314
 72.006      315
 72.023      282
 72.040      285
 72.057      292
 72.074      265
 72.091      301
 72.108      268
 72.125      297
 72.142      317
 72.159      314
 72.176      302
 72.193      306
 72.210      312
 72.227      309
 72.244      318
 72.261      335
 72.278      322
 72.295      312
 72.312      325
 72.329      324
 72.346      324
 72.363      351
 72.380      335
 72.397      332
 72.414      345
 72.431      337
 72.448      351
 72.465      356
 72.482      329
 72.499      312
 72.516      317
 72.533      325
 72.550      321
 72.567      328
 72.584      331
 72.601      329
 72.618      309
 72.635      312
 72.652      307
 72.669      317
 72.686      353
 72.703      327
 72.720      315
 72.737      311
 72.754      342
 72.771      336
 72.788      377
 72.805      402
 72.822      427
 72.839      418
 72.856      432
 72.873      481
 72.890      521
 72.907      465
 72.924      402
 72.941      413
 72.958      410
 72.975      370
 72.992      374
 73.009      356
 73.026      333
 73.043      316
 73.060      308
 73.077      319
 73.094      318
 73.111      341
 73.128      329
 73.145      325
 73.162      315
 73.179      311
 73.196      299
 73.213      292
 73.230      306
 73.247      311
 73.264      317
 73.281      317
 73.298      295
 73.315      294
 73.332      296
 73.349      309
 73.366      307
 73.383      322
 73.400      316
 73.417      312
 73.434      304
 73.451      298
 73.468      319
 73.485      317
 73.502      333
 73.519      313
 73.536      317
 73.553      304
 73.570      305
 73.587      335
 73.604      298
 73.621      305
 73.638      304
 73.655      319
 73.672      292
 73.689      293
 73.706      324
 73.723      327
 73.740      323
 73.757      257
 73.774      297
 73.791      296
 73.808      306
 73.825      321
 73.842      331
 73.859      345
 73.876      326
 73.893      340
 73.910      373
 73.927      390
 73.944      432
 73.961      412
 73.978      415
 73.995      410
 74.012      404
 74.029      380
 74.046      379
 74.063      371
 74.080      336
 74.097      368
 74.114      353
 74.131      350
 74.148      328
 74.165      314
 74.182      325
 74.199      342
 74.216      334
 74.233      303
 74.250      317
 74.267      323
 74.284      314
 74.301      308
 74.318      308
 74.335      310
 74.352      313
 74.369      326
 74.386      318
 74.403      302
 74.420      309
 74.437      316
 74.454      334
 74.471      329
 74.488      303
 74.505      317
 74.522      316
 74.539      307
 74.556      315
 74.573      317
 74.590      306
 74.607      331
 74.624      308
 74.641      303
 74.658      300
 74.675      288
 74.692      289
 74.709      319
 74.726      285
 74.743      301
 74.760      327
 74.777      290
 74.794      322
 74.811      328
 74.828      329
 74.845      343
 74.862      283
 74.879      322
 74.896      311
 74.913      298
 74.930      317
 74.947      303
 74.964      307
 74.981      300
 74.998      309
 75.015      322
 75.032      286
 75.049      283
 75.066      294
 75.083      279
 75.100      306
 75.117      306
 75.134      304
 75.151      303
 75.168      289
 75.185      315
 75.202      303
 75.219      292
 75.236      286
 75.253      315
 75.270      324
 75.287      324
 75.304      305
 75.321      320
 75.338      316
 75.355      316
 75.372      334
 75.389      346
 75.406      360
 75.423      366
 75.440      363
 75.457      325
 75.474      324
 75.491      321
 75.508      326
 75.525      330
 75.542      336
 75.559      314
 75.576      308
 75.593      293
 75.610      289
 75.627      320
 75.644      324
 75.661      331
 75.678      317
 75.695      285
 75.712      309
 75.729      327
 75.746      333
 75.763      309
 75.780      330
 75.797      307
 75.814      310
 75.831      313
 75.848      303
 75.865      356
 75.882      286
 75.899      318
 75.916      333
 75.933      297
 75.950      316
 75.967      314
 75.984      307
 76.001      295
 76.018      306
 76.035      317
 76.052      304
 76.069      314
 76.086      335
 76.103      327
 76.120      312
 76.137      327
 76.154      319
 76.171      334
 76.188      330
 76.205      329
 76.222      336
 76.239      346
 76.256      312
 76.273      314
 76.290      333
 76.307      327
 76.324      309
 76.341      307
 76.358      327
 76.375      310
 76.392      303
 76.409      318
 76.426      325
 76.443      331
 76.460      314
 76.477      323
 76.494      332
 76.511      330
 76.528      348
 76.545      335
 76.562      321
 76.579      308
 76.596      318
 76.613      320
 76.630      326
 76.647      323
 76.664      329
 76.681      336
 76.698      362
 76.715      340
 76.732      345
 76.749      349
 76.766      321
 76.783      336
 76.800      330
 76.817      298
 76.834      345
 76.851      323
 76.868      303
 76.885      291
 76.902      319
 76.919      325
 76.936      362
 76.953      351
 76.970      336
 76.987      318
 77.004      314
 77.021      324
 77.038      329
 77.055      325
 77.072      305
 77.089      346
 77.106      339
 77.123      350
 77.140      335
 77.157      358
 77.174      356
 77.191      362
 77.208      378
 77.225      384
 77.242      361
 77.259      384
 77.276      365
 77.293      345
 77.310      348
 77.327      340
 77.344      331
 77.361      328
 77.378      343
 77.395      345
 77.412      318
 77.429      305
 77.446      321
 77.463      320
 77.480      313
 77.497      336
 77.514      323
 77.531      340
 77.548      325
 77.565      341
 77.582      336
 77.599      329
 77.616      341
 77.633      336
 77.650      316
 77.667      326
 77.684      317
 77.701      347
 77.718      328
 77.735      350
 77.752      323
 77.769      342
 77.786      326
 77.803      328
 77.820      330
 77.837      325
 77.854      296
 77.871      346
 77.888      320
 77.905      296
 77.922      326
 77.939      348
 77.956      350
 77.973      362
 77.990      335
 78.007      344
 78.024      307
 78.041      333
 78.058      354
 78.075      360
 78.092      315
 78.109      323
 78.126      347
 78.143      344
 78.160      340
 78.177      347
 78.194      333
 78.211      313
 78.228      310
 78.245      312
 78.262      328
 78.279      324
 78.296      311
 78.313      312
 78.330      330
 78.347      340
 78.364      329
 78.381      322
 78.398      328
 78.415      329
 78.432      321
 78.449      319
 78.466      330
 78.483      335
 78.500      316
 78.517      326
 78.534      331
 78.551      351
 78.568      336
 78.585      325
 78.602      328
 78.619      307
 78.636      343
 78.653      374
 78.670      343
 78.687      362
 78.704      368
 78.721      384
 78.738      382
 78.755      364
 78.772      383
 78.789      330
 78.806      346
 78.823      361
 78.840      328
 78.857      285
 78.874      338
 78.891      335
 78.908      346
 78.925      329
 78.942      316
 78.959      308
 78.976      357
 78.993      326
 79.010      317
 79.027      310
 79.044      328
 79.061      326
 79.078      316
 79.095      324
 79.112      325
 79.129      324
 79.146      344
 79.163      343
 79.180      343
 79.197      336
 79.214      313
 79.231      330
 79.248      331
 79.265      320
 79.282      330
 79.299      350
 79.316      354
 79.333      332
 79.350      316
 79.367      322
 79.384      312
 79.401      308
 79.418      337
 79.435      330
 79.452      318
 79.469      322
 79.486      337
 79.503      333
 79.520      344
 79.537      344
 79.554      317
 79.571      320
 79.588      310
 79.605      333
 79.622      315
 79.639      319
 79.656      342
 79.673      310
 79.690      342
 79.707      294
 79.724      335
 79.741      332
 79.758      329
 79.775      304
 79.792      335
 79.809      355
 79.826      300
 79.843      346
 79.860      342
 79.877      345
 79.894      352
 79.911      350
 79.928      346
 79.945      321
 79.962      319
 79.979      351

